c,bE,aE,bP,aP,bS,aS,t
0,11,11,93.04,100,1,3,1539820800056
0,12,12,93.12,103.12,1,1,1539849973516
0,8,8,95,102.55,1,5,1539860400113
0,8,11,95,101.88,1,4,1539860404669
0,8,12,95,98.44,1,1,1539860588210
0,8,11,95,101.88,1,4,1539860595233
0,12,11,93.12,101.88,1,4,1539860817107
0,11,11,98,101.88,1,4,1539860817246
0,12,11,93.12,101.88,1,4,1539860979287
0,8,11,98.12,101.88,1,4,1539860979468
0,12,11,93.12,101.88,1,4,1539861175688
0,12,12,93.12,93.24,1,1,1539861475805
0,12,11,93.12,101.88,1,4,1539861475827
0,11,11,93.24,101.88,1,4,1539861476052
0,12,11,93.12,101.88,1,4,1539861476165
0,12,12,93.12,98.25,1,1,1539864091759
0,12,11,93.12,98.25,1,2,1539864091760
0,12,19,93.12,98.25,1,1,1539864304586
0,12,7,93.12,98.25,1,1,1539864304586
0,12,11,93.12,101.88,1,4,1539864304587
0,12,12,93.12,98,1,1,1539864304593
0,12,7,93.12,98,1,2,1539864304594
0,12,11,93.12,101.88,1,4,1539864317435
0,12,19,93.12,98,1,1,1539864317435
0,12,12,93.12,97.75,1,2,1539864317441
0,12,11,93.12,101.88,1,4,1539864770612
0,12,11,93.12,97.5,1,1,1539864770618
0,8,11,93.04,97.5,1,1,1539868150434
0,12,11,93.36,97.5,1,1,1539868150436
0,12,19,93.36,97.5,1,1,1539868577691
0,12,12,93.36,98.1,1,1,1539869158933
0,12,11,93.36,97.4,1,1,1539869158939
0,7,11,94.17,97.4,1,1,1539869163891
0,7,11,94.82,97.4,1,1,1539869172831
0,18,11,95.34,97.4,1,1,1539869172832
0,19,11,96.31,97.4,1,1,1539869172832
0,18,11,95.34,97.4,1,1,1539869172834
0,7,11,94.82,97.4,1,1,1539869172970
0,7,11,95.34,97.4,1,1,1539869172970
0,12,11,93.36,97.4,1,1,1539869172970
0,18,11,94.17,97.4,1,1,1539869179981
0,7,11,94.17,97.4,1,1,1539869180092
0,7,12,94.17,98.1,1,1,1539869184328
0,18,12,94.82,98.1,1,1,1539869184329
0,11,12,97.4,98.1,1,1,1539869184336
0,18,12,94.82,98.1,1,1,1539869185559
0,7,12,94.82,98.1,1,1,1539869185560
0,18,12,93.51,98.1,1,1,1539869185560
0,12,12,93.36,98.1,1,1,1539869185562
0,12,11,93.36,101.88,1,4,1539869221455
0,18,11,94.31,101.88,1,4,1539869221455
0,18,11,94.31,101.88,1,4,1539869221456
0,7,11,94.31,101.88,1,4,1539869221456
0,12,11,93.36,101.88,1,4,1539869280982
0,7,11,94.31,101.88,1,4,1539869280982
0,12,11,93.36,99.99,1,1,1539869319518
0,11,11,98.2,99.99,3,1,1539869325146
0,11,11,98.2,99.99,6,1,1539869326427
0,11,11,98.2,99.99,3,1,1539869337157
0,12,11,94.48,99.99,8,1,1539869338434
0,18,11,94.28,99.99,1,1,1539869338435
0,8,11,94.27,99.99,1,1,1539869338439
0,12,11,94.27,99.99,1,1,1539869338443
0,12,11,93.36,99.99,1,1,1539869338443
0,11,11,98.2,99.99,3,1,1539869340106
0,12,11,95.96,99.99,8,1,1539869352106
0,18,11,94.28,99.99,1,1,1539869352107
0,12,11,94.27,99.99,1,1,1539869352109
0,12,11,94.27,99.99,2,1,1539869352109
0,12,11,93.36,99.99,1,1,1539869352109
0,12,11,93.36,101.88,1,4,1539869353547
0,11,11,98.2,101.88,3,4,1539869370060
0,12,11,95.37,101.88,8,4,1539869382081
0,12,11,94.31,101.88,1,4,1539869382082
0,11,11,95.37,101.88,1,4,1539869382083
0,11,8,95.37,101.5,1,2,1539869393506
0,11,11,95.37,101.5,1,1,1539869393506
0,11,11,95.37,101.41,1,1,1539869400318
0,10,10,98.32,99.25,1,12,1539869400703
0,8,10,98.5,99.25,10,12,1539869400705
0,8,10,99.23,99.25,1,12,1539869401085
0,8,10,99.23,99.25,2,12,1539869401086
0,8,10,99.23,99.25,2,13,1539869401160
0,8,10,99.23,99.25,2,10,1539869401232
0,8,10,99.23,99.25,1,10,1539869401449
0,8,10,98.5,99.25,10,10,1539869401495
0,8,8,98.5,99.23,10,1,1539869401495
0,8,10,98.5,99.25,10,10,1539869401496
0,10,10,98.51,99.25,1,10,1539869401500
0,12,10,98.51,99.25,1,10,1539869413222
0,10,10,98.51,99.25,2,10,1539869428749
0,10,10,98.61,99.25,1,10,1539869435514
0,10,10,98.61,99.25,2,10,1539869435776
0,10,10,98.93,99.25,1,10,1539869456477
0,10,10,99.09,99.25,1,10,1539869456747
0,12,10,98.93,99.25,1,10,1539869456748
0,10,10,98.93,99.25,2,10,1539869458422
0,10,12,98.93,99.25,2,2,1539869461860
0,10,12,98.93,99.25,2,6,1539869461874
0,10,12,99.09,99.25,1,6,1539869463507
0,12,12,98.93,99.25,1,6,1539869463507
0,10,12,99.09,99.25,1,6,1539869465555
0,12,12,98.93,99.25,1,6,1539869465555
0,12,12,98.77,98.93,1,1,1539869468684
0,12,10,98.77,99.25,1,6,1539869468684
0,10,12,98.63,98.93,1,1,1539869468684
0,10,17,98.63,99.18,1,1,1539869468685
0,10,12,98.63,99.18,1,2,1539869468688
0,10,17,98.63,99.18,1,1,1539869468741
0,10,12,98.63,99.18,1,1,1539869468851
0,10,12,98.63,99.18,1,3,1539869472218
0,12,12,98.63,99.18,1,3,1539869472306
0,10,12,98.63,99.18,2,3,1539869482278
0,10,12,98.63,99.18,3,3,1539869484301
0,12,12,98.63,99.18,2,3,1539869488556
0,10,12,98.8,99.18,1,3,1539869489276
0,10,12,98.8,99.18,2,3,1539869491302
0,10,12,98.8,99.18,2,4,1539869502841
0,12,12,98.8,99.18,1,4,1539869510273
0,10,12,98.8,99.18,1,4,1539869510345
0,2,12,98.8,99.18,2,4,1539869510346
0,2,12,98.8,99.18,3,4,1539869514092
0,2,12,98.8,99.18,2,4,1539869521033
0,2,12,98.81,99.18,1,4,1539869521033
0,2,12,98.81,99.18,1,2,1539869526056
0,18,12,98.81,99.18,2,2,1539869536560
0,18,19,98.81,99.18,2,1,1539869539567
0,18,19,98.81,99.18,3,1,1539869541002
0,18,12,98.81,99.18,3,2,1539869547767
0,18,12,98.81,99.15,3,3,1539869548108
0,10,12,98.82,99.15,1,3,1539869553168
0,12,12,98.82,99.15,1,3,1539869553271
0,18,12,98.98,99.15,1,3,1539869555042
0,12,12,98.82,99.15,1,3,1539869555079
0,10,12,98.83,99.15,1,3,1539869555112
0,12,12,98.82,99.15,1,3,1539869555347
0,2,12,98.82,99.15,2,3,1539869555481
0,10,12,98.83,99.15,1,3,1539869555488
0,12,12,98.82,99.15,1,3,1539869555868
0,2,12,98.83,99.15,1,3,1539869555924
0,2,12,98.98,99.15,1,3,1539869556005
0,11,12,98.99,99.15,1,3,1539869557686
0,18,12,98.98,99.15,1,3,1539869559648
0,10,12,98.91,99.15,1,3,1539869559648
0,2,12,98.98,99.15,1,3,1539869559648
0,2,12,98.91,99.15,1,3,1539869560180
0,12,12,98.82,99.15,1,3,1539869560181
0,12,12,98.82,99.15,2,3,1539869562162
0,2,12,98.82,99.15,1,3,1539869569172
0,12,12,98.91,99.15,1,3,1539869569172
0,2,12,98.82,99.15,1,3,1539869569173
0,12,17,98.82,99.1,1,1,1539869569173
0,2,17,98.82,99.1,1,1,1539869569173
0,2,17,98.82,99.1,1,1,1539869569268
0,12,17,98.82,99.1,1,1,1539869569569
0,12,11,98.82,99.1,1,1,1539869569583
0,12,11,98.82,99.1,2,1,1539869570050
0,12,11,98.91,99.1,1,1,1539869577047
0,2,11,98.82,99.1,1,1,1539869577047
0,12,11,98.91,99.1,2,1,1539869577199
0,12,12,98.91,99.1,2,1,1539869577521
0,12,11,98.91,99.1,2,2,1539869579335
0,10,11,98.88,99.1,1,2,1539869581553
0,12,11,98.91,99.1,1,2,1539869581553
0,10,12,98.88,99.06,1,1,1539869581553
0,12,17,98.82,99.05,1,1,1539869581553
0,12,12,98.82,99.06,1,1,1539869581553
0,12,12,98.82,98.91,1,1,1539869581553
0,12,17,98.82,99.03,1,2,1539869581554
0,19,17,98.84,98.98,1,1,1539869581554
0,19,17,98.84,99.03,1,2,1539869581554
0,10,17,98.61,98.98,1,1,1539869581558
0,10,12,98.61,98.98,1,1,1539869581578
0,8,12,98.5,98.98,10,1,1539869581611
0,10,12,98.51,98.98,1,1,1539869581611
0,8,10,98.5,98.98,10,2,1539869581763
0,8,10,98.5,98.98,10,2,1539869581777
0,8,11,98.5,98.82,10,1,1539869581777
0,10,12,98.82,98.94,1,1,1539869581778
0,10,10,98.82,98.98,1,2,1539869581778
0,8,12,98.5,98.94,10,1,1539869581778
0,8,11,98.5,98.89,10,1,1539869581778
0,8,11,98.5,98.89,9,1,1539869590189
0,8,11,98.5,98.89,8,1,1539869590189
0,8,17,98.5,98.81,8,1,1539869590190
0,8,17,98.5,98.74,8,1,1539869590195
0,12,17,98.51,98.74,1,1,1539869590208
0,12,7,98.51,98.74,1,1,1539869590208
0,12,7,98.51,98.74,1,2,1539869590209
0,8,7,98.5,98.74,8,2,1539869590210
0,8,12,98.5,98.72,4,1,1539869590210
0,8,12,98.5,98.72,8,1,1539869590210
0,8,12,98.5,98.72,3,1,1539869590211
0,12,17,98.32,98.66,2,1,1539869590211
0,12,12,98.32,98.72,2,1,1539869590211
0,12,17,98.32,98.67,2,1,1539869590211
0,12,8,98.32,98.59,2,1,1539869590223
0,12,12,98.32,98.59,2,1,1539869590284
0,12,10,98.32,98.59,2,2,1539869590649
0,12,10,98.32,98.59,3,2,1539869591193
0,12,10,98.32,98.59,2,2,1539869591785
0,10,10,98.32,98.59,1,2,1539869591904
0,12,10,98.32,98.59,1,2,1539869594823
0,12,10,98.32,98.59,2,2,1539869596879
0,12,10,98.32,98.59,1,2,1539869598888
0,10,10,98.32,98.59,1,2,1539869598888
0,12,12,98.23,98.53,1,1,1539869598888
0,12,10,98.23,98.59,1,2,1539869598888
0,12,17,98.23,98.53,1,2,1539869598888
0,10,17,98.2,98.53,1,2,1539869598888
0,10,12,98.2,98.53,1,3,1539869598891
0,10,17,98.2,98.53,1,2,1539869598916
0,10,15,98.2,98.53,1,1,1539869598918
0,10,12,98.2,98.53,1,1,1539869598918
0,10,17,98.2,98.53,1,1,1539869598930
0,10,10,98.2,98.53,1,1,1539869599124
0,12,12,98.2,98.53,1,1,1539869599935
0,10,12,98.2,98.53,1,2,1539869599936
0,12,12,98.2,98.53,1,2,1539869599939
0,10,12,98.1,98.46,1,1,1539869600143
0,10,12,98.1,98.53,1,2,1539869600143
0,10,12,98.1,98.36,1,1,1539869600143
0,10,12,98.1,98.46,1,2,1539869600143
0,10,11,98.1,98.2,1,2,1539869600145
0,10,11,98,98.2,2,2,1539869600146
0,10,11,98,98.2,1,2,1539869600146
0,10,11,97.9,98.2,1,2,1539869600147
0,10,11,97.74,98.2,1,2,1539869600147
0,10,19,97.74,98.19,1,1,1539869600150
0,10,19,97.74,98.19,1,2,1539869600151
0,8,19,97.75,98.19,8,1,1539869600173
0,8,19,97.75,98.19,8,2,1539869600173
0,10,19,97.74,98.19,1,1,1539869600470
0,10,10,97.74,98.19,1,1,1539869601001
0,10,10,97.74,98.19,1,2,1539869602647
0,12,10,97.74,98.19,1,2,1539869607165
0,11,10,97.75,98.19,1,2,1539869607609
0,11,10,97.53,98.19,5,2,1539869607698
0,11,10,97.53,98.19,6,2,1539869608925
0,11,10,97.53,98.19,1,2,1539869612055
0,10,10,97.39,98.19,1,2,1539869613401
0,10,10,97.39,98.19,2,2,1539869616330
0,10,10,97.4,98.19,1,2,1539869618589
0,10,10,97.4,98.19,1,3,1539869623264
0,10,10,97.56,98.19,1,3,1539869623318
0,10,10,97.56,98.19,1,2,1539869624044
0,10,10,97.56,98.19,2,2,1539869625779
0,10,10,97.56,98.19,1,2,1539869630304
0,10,10,97.87,98.19,1,2,1539869630304
0,10,19,97.56,98.17,1,1,1539869630305
0,12,19,97.56,98.17,1,1,1539869630312
0,12,10,97.56,98.17,1,1,1539869630885
0,10,10,97.87,98.17,1,1,1539869632778
0,10,10,97.4,98.17,1,1,1539869632779
0,11,10,97.41,98.17,1,1,1539869640288
0,10,10,97.4,98.17,1,1,1539869640539
0,11,10,97.41,98.17,1,1,1539869640539
0,11,17,97.41,98.03,1,1,1539869640539
0,11,17,97.41,98.03,1,2,1539869640539
0,11,17,97.41,97.99,1,1,1539869640540
0,11,12,97.41,97.99,1,1,1539869640558
0,10,12,97.4,97.99,1,1,1539869641402
0,10,18,97.4,97.87,1,1,1539869641403
0,10,12,97.4,97.87,1,1,1539869641419
0,10,18,97.4,97.87,1,1,1539869642003
0,10,10,97.4,97.87,1,2,1539869646525
0,10,12,97.4,97.87,1,3,1539869647518
0,10,12,97.4,97.87,2,3,1539869653840
0,10,12,97.63,97.87,1,3,1539869660827
0,10,12,97.4,97.87,1,3,1539869660827
0,10,10,97.4,97.87,1,3,1539869665517
0,10,12,97.4,97.87,1,5,1539869665518
0,10,12,97.4,97.87,2,5,1539869672107
0,10,19,97.4,97.87,2,1,1539869676517
0,18,19,97.4,97.87,1,1,1539869676522
0,11,19,97.4,97.87,2,1,1539869682390
0,11,19,97.4,97.87,3,1,1539869686047
0,11,7,97.4,97.87,3,1,1539869686048
0,11,7,97.4,97.87,2,1,1539869686236
0,11,7,97.63,97.87,1,1,1539869689355
0,11,10,97.63,97.87,1,1,1539869689659
0,11,10,97.64,97.87,1,1,1539869693585
0,11,12,97.64,97.87,2,1,1539869693585
0,11,12,97.64,97.87,1,1,1539869693585
0,11,18,97.64,97.87,2,1,1539869693586
0,11,10,97.64,97.87,2,1,1539869693623
0,11,10,97.64,97.87,1,1,1539869693696
0,11,10,97.64,97.87,2,1,1539869696353
0,11,18,97.64,97.87,2,1,1539869699113
0,11,19,97.64,97.87,2,1,1539869699790
0,11,19,97.64,97.87,3,1,1539869700179
0,11,12,97.64,97.87,3,1,1539869700180
0,11,10,97.64,97.87,3,1,1539869700180
0,11,10,97.75,97.87,1,1,1539869703352
0,11,10,97.64,97.87,1,1,1539869703397
0,18,10,97.64,97.87,1,1,1539869703397
0,11,10,97.64,97.87,2,1,1539869704985
0,11,18,97.64,97.87,2,1,1539869705862
0,11,18,97.64,97.87,3,1,1539869707109
0,11,18,97.64,97.87,2,1,1539869707145
0,11,18,97.64,97.87,3,1,1539869708144
0,11,18,97.67,97.87,1,1,1539869708584
0,11,2,97.67,97.87,1,1,1539869708585
0,11,10,97.67,97.87,1,1,1539869708870
0,12,10,97.67,97.87,1,1,1539869708939
0,11,10,97.67,97.87,2,1,1539869709602
0,12,10,97.67,97.87,2,1,1539869710252
0,11,10,97.67,97.87,1,1,1539869710253
0,11,10,97.75,97.87,1,1,1539869714072
0,11,18,97.75,97.87,1,1,1539869714131
0,12,18,97.75,97.87,1,1,1539869714486
0,11,18,97.75,97.87,2,1,1539869717082
0,11,15,97.75,97.9,2,1,1539869717260
0,11,19,97.75,97.87,2,1,1539869717260
0,12,15,97.86,97.9,1,1,1539869717260
0,19,15,97.78,97.9,1,1,1539869717260
0,12,15,97.78,97.9,1,1,1539869717260
0,19,15,97.86,97.9,1,1,1539869717260
0,12,15,97.78,97.9,1,1,1539869717260
0,8,15,97.87,97.9,1,1,1539869717260
0,8,10,97.87,98.17,1,1,1539869717261
0,12,10,97.88,98.17,1,1,1539869717261
0,8,19,97.87,97.92,1,1,1539869717261
0,12,3,97.88,98.17,1,1,1539869717312
0,12,15,97.88,98.17,1,1,1539869717317
0,12,10,97.88,98.19,1,2,1539869717318
0,11,10,97.9,98.19,1,2,1539869721072
0,12,10,97.9,98.19,1,2,1539869722270
0,19,10,97.91,98.19,1,2,1539869722736
0,19,10,97.91,98.19,2,2,1539869725477
0,19,11,97.91,98.19,2,1,1539869725510
0,3,12,98.04,98.52,1,1,1539869725510
0,19,10,97.91,98.19,2,1,1539869725510
0,19,12,97.91,98.52,2,1,1539869725510
0,19,12,98.04,98.52,1,1,1539869725510
0,3,3,98.04,98.52,1,1,1539869725511
0,19,12,98.04,98.52,1,1,1539869725534
0,3,15,98.04,98.52,1,1,1539869725534
0,12,12,98.04,98.52,1,1,1539869725534
0,3,10,98.04,98.66,1,1,1539869725535
0,3,3,98.04,98.66,1,1,1539869725536
0,12,15,98.04,98.66,1,1,1539869725563
0,12,15,98.04,98.69,1,1,1539869725565
0,12,12,98.04,98.77,1,2,1539869725565
0,15,15,98.04,98.77,1,1,1539869725626
0,3,3,98.04,98.78,1,1,1539869725627
0,3,10,98.04,98.78,1,2,1539869726760
0,11,10,98.05,98.78,1,2,1539869728071
0,11,3,98.05,98.78,1,1,1539869730647
0,11,10,98.05,98.78,1,2,1539869732089
0,12,10,98.05,98.78,2,2,1539869732744
0,3,10,98.06,98.78,1,2,1539869735104
0,12,10,98.06,98.78,2,2,1539869735157
0,11,10,98.42,98.78,1,2,1539869746204
0,12,10,98.42,98.78,1,2,1539869746232
0,12,3,98.42,98.7,1,1,1539869746234
0,12,3,98.42,98.6,1,1,1539869746234
0,15,3,98.06,98.6,1,1,1539869746234
0,10,3,98.06,98.6,1,1,1539869746235
0,19,3,98.06,98.6,2,1,1539869746236
0,12,3,98.06,98.6,2,1,1539869746243
0,19,3,98.06,98.59,2,1,1539869746258
0,12,3,98.06,98.59,2,1,1539869746258
0,12,3,98.06,98.59,2,1,1539869746264
0,19,3,98.06,98.59,2,1,1539869746647
0,19,3,98.06,98.59,2,1,1539869747572
0,11,3,98.42,98.59,1,1,1539869747572
0,12,3,98.06,98.59,2,1,1539869747572
0,3,3,98.06,98.59,1,1,1539869747573
0,19,3,98.06,98.59,2,1,1539869748613
0,11,3,98.42,98.59,1,1,1539869749089
0,3,3,98.06,98.59,1,1,1539869749096
0,19,3,98.06,98.59,2,1,1539869750095
0,19,15,98.06,98.59,2,1,1539869755469
0,12,15,98.06,98.59,2,1,1539869757019
0,3,15,98.06,98.59,2,1,1539869757020
0,3,15,98.12,98.59,1,1,1539869757342
0,3,12,98.12,98.32,1,1,1539869757342
0,3,15,98.12,98.59,1,1,1539869757342
0,3,3,98.12,98.59,1,1,1539869757342
0,17,12,98.12,98.59,1,1,1539869757439
0,17,19,98.12,98.59,1,1,1539869757439
0,3,19,98.06,98.59,2,1,1539869757571
0,3,3,98.06,98.59,2,1,1539869757832
0,3,11,98.13,98.59,1,1,1539869757832
0,12,11,98.13,98.59,2,1,1539869757862
0,12,11,98.13,98.59,3,1,1539869758523
0,3,11,98.14,98.59,1,1,1539869758915
0,3,19,98.14,98.59,1,1,1539869759018
0,3,12,98.14,98.59,1,1,1539869759029
0,3,3,98.14,98.59,1,1,1539869759333
0,10,3,98.35,98.59,1,1,1539869764312
0,10,15,98.35,98.59,1,1,1539869764387
0,12,11,98.35,98.59,2,1,1539869764388
0,12,15,98.35,98.59,2,1,1539869764388
0,12,12,98.35,98.59,2,1,1539869764511
0,10,11,98.35,98.59,1,1,1539869767641
0,12,11,98.35,98.59,1,1,1539869767641
0,12,11,98.26,98.59,1,1,1539869767641
0,12,3,98.26,98.47,1,1,1539869767641
0,12,17,98.26,98.54,1,1,1539869767641
0,12,3,98.17,98.47,1,1,1539869767641
0,15,3,98.14,98.47,1,1,1539869767641
0,15,3,98.14,98.47,1,1,1539869767641
0,15,17,98.14,98.54,1,1,1539869767641
0,10,17,98.14,98.54,1,1,1539869767641
0,10,12,98.14,98.54,1,2,1539869767661
0,10,17,98.14,98.54,1,1,1539869767728
0,10,3,98.14,98.54,1,1,1539869767842
0,3,15,98.15,98.54,1,1,1539869770831
0,3,10,98.15,98.54,1,1,1539869770831
0,3,3,98.15,98.54,1,1,1539869770857
0,3,12,98.15,98.54,2,1,1539869771233
0,3,12,98.15,98.54,2,1,1539869772252
0,10,12,98.15,98.54,2,1,1539869772252
0,10,12,98.15,98.54,2,1,1539869772252
0,10,12,98.35,98.54,1,1,1539869779167
0,10,12,98.35,98.54,2,1,1539869780863
0,15,12,98.15,98.54,1,1,1539869783151
0,10,12,98.35,98.54,1,1,1539869783151
0,3,12,98.15,98.54,1,1,1539869783152
0,11,12,98.16,98.54,1,1,1539869783715
0,11,12,98.16,98.54,2,1,1539869785234
0,11,12,98.16,98.54,3,1,1539869789349
0,11,10,98.16,98.54,3,1,1539869789350
0,11,10,98.16,98.54,2,1,1539869789491
0,11,10,98.16,98.54,2,2,1539869803446
0,11,10,98.16,98.54,3,2,1539869805655
0,11,10,98.16,98.54,4,2,1539869805903
0,11,10,98.16,98.54,3,2,1539869806579
0,11,10,98.35,98.54,1,2,1539869812644
0,11,10,98.35,98.54,2,2,1539869812902
0,11,10,98.35,98.54,3,2,1539869813198
0,11,19,98.35,98.54,3,1,1539869813222
0,11,12,98.35,98.54,3,1,1539869814309
0,11,10,98.35,98.54,3,1,1539869814932
0,11,19,98.35,98.54,3,1,1539869815220
0,11,12,98.35,98.54,3,1,1539869817139
0,11,10,98.35,98.54,3,1,1539869817874
0,11,10,98.35,98.54,3,2,1539869818046
0,11,10,98.46,98.54,1,2,1539869819654
0,11,10,98.35,98.54,2,2,1539869819654
0,11,10,98.35,98.54,1,2,1539869819680
0,11,10,98.27,98.54,1,2,1539869819680
0,12,10,98.2,98.54,1,2,1539869820349
0,10,10,98.21,98.54,1,2,1539869822846
0,10,10,98.21,98.54,2,2,1539869822858
0,10,10,98.21,98.54,2,3,1539869825841
0,10,10,98.21,98.54,3,3,1539869833265
0,10,10,98.21,98.54,4,3,1539869839693
0,10,10,98.21,98.54,3,3,1539869840310
0,10,10,98.37,98.54,1,3,1539869840310
0,10,10,98.21,98.54,2,3,1539869846692
0,12,10,98.21,98.54,1,3,1539869847021
0,12,10,98.21,98.54,2,3,1539869847460
0,12,10,98.21,98.53,2,1,1539869853664
0,12,10,98.21,98.53,3,1,1539869856067
0,12,11,98.21,98.53,3,1,1539869856068
0,12,2,98.21,98.53,3,1,1539869857259
0,12,12,98.21,98.53,3,1,1539869863057
0,10,10,98.21,98.53,2,1,1539869863065
0,12,11,98.21,98.53,2,1,1539869863076
0,12,12,98.21,98.53,2,1,1539869865328
0,12,10,98.21,98.53,3,1,1539869867921
0,12,10,98.21,98.53,2,1,1539869868406
0,12,10,98.21,98.53,3,1,1539869871718
0,12,11,98.21,98.53,3,1,1539869873393
0,12,12,98.21,98.53,3,1,1539869878432
0,10,10,98.21,98.53,2,1,1539869879021
0,10,12,98.21,98.44,2,1,1539869879050
0,12,12,98.21,98.44,2,1,1539869879052
0,12,10,98.21,98.44,2,2,1539869879096
0,10,10,98.21,98.44,1,2,1539869879710
0,12,12,98.21,98.44,1,2,1539869880161
0,10,12,98.21,98.44,1,2,1539869880161
0,10,10,98.21,98.44,1,2,1539869880161
0,10,12,98.21,98.39,1,1,1539869880161
0,10,17,98.21,98.39,1,1,1539869880161
0,10,19,98.21,98.39,1,2,1539869880162
0,10,17,98.21,98.39,1,1,1539869880179
0,10,19,98.21,98.39,1,1,1539869880338
0,10,19,98.2,98.39,1,1,1539869880608
0,19,19,98.21,98.39,1,1,1539869881231
0,10,19,98.2,98.39,1,1,1539869881231
0,8,19,98.17,98.39,1,1,1539869881231
0,10,19,98.17,98.39,1,1,1539869881233
0,10,3,98.17,98.3,1,1,1539869881233
0,10,3,97.81,98.3,1,1,1539869881233
0,19,3,97.88,98.3,1,1,1539869881233
0,10,15,97.81,98.3,1,1,1539869881256
0,10,10,97.81,98.3,1,1,1539869881261
0,10,7,97.81,98.3,1,1,1539869881272
0,19,7,97.71,98.3,2,1,1539869881284
0,19,3,97.71,98.29,2,1,1539869881285
0,10,3,97.71,98.29,2,1,1539869881653
0,10,3,97.71,98.28,2,1,1539869881732
0,19,3,97.71,98.28,1,1,1539869882556
0,19,11,97.71,98.28,1,1,1539869882591
0,19,15,97.71,98.28,1,1,1539869882592
0,12,12,97.71,98.28,1,1,1539869882592
0,19,12,97.71,98.28,1,1,1539869882592
0,12,10,97.71,98.28,2,1,1539869882650
0,12,10,97.71,98.28,3,1,1539869882655
0,12,3,97.71,98.28,3,1,1539869882715
0,12,10,97.71,98.28,3,2,1539869884142
0,12,10,97.71,98.28,4,2,1539869884652
0,12,3,97.71,98.27,4,1,1539869888407
0,12,12,97.71,98.27,4,2,1539869888408
0,12,10,97.71,98.26,4,1,1539869888711
0,12,3,97.71,98.26,4,1,1539869889016
0,12,3,97.71,98.26,3,1,1539869889656
0,11,3,97.72,98.26,1,1,1539869889696
0,11,8,97.72,98.26,1,1,1539869889696
0,11,8,97.72,98.26,2,1,1539869889704
0,3,8,97.72,98.26,1,1,1539869898767
0,11,8,97.72,98.26,2,1,1539869900908
0,3,8,97.72,98.26,1,1,1539869901815
0,11,8,97.72,98.26,2,1,1539869903956
0,11,8,97.72,98.26,3,1,1539869905432
0,11,8,97.72,98.26,4,1,1539869908269
0,11,8,97.72,98.26,3,1,1539869908353
0,11,8,97.99,98.26,1,1,1539869910955
0,11,8,97.72,98.26,2,1,1539869911496
0,11,3,97.72,98.26,2,1,1539869911496
0,11,3,97.72,98.26,3,1,1539869911497
0,11,12,97.72,98.12,3,1,1539869911527
0,11,10,97.72,98.11,3,1,1539869911530
0,11,12,97.72,98.11,3,2,1539869911648
0,11,12,97.72,98.11,2,2,1539869915269
0,11,12,97.99,98.11,1,2,1539869915269
0,3,12,97.72,98.11,1,2,1539869915270
0,11,12,97.72,98.11,2,2,1539869916293
0,11,8,97.72,98.11,2,1,1539869916648
0,11,10,97.72,98.1,2,1,1539869916650
0,11,10,97.72,98.1,2,2,1539869918617
0,11,10,97.72,98.09,2,1,1539869927171
0,12,10,97.72,98.09,2,1,1539869927389
0,11,12,97.72,98.09,2,2,1539869927390
0,12,12,97.72,98.09,3,2,1539869928512
0,12,10,97.72,98.08,3,1,1539869938557
0,11,10,97.99,98.08,1,1,1539869938712
0,12,10,97.72,98.08,3,1,1539869938712
0,12,10,97.72,98.08,3,2,1539869938713
0,12,10,97.72,98.08,3,3,1539869938714
0,11,10,97.72,98.08,2,2,1539869939756
0,11,10,97.72,98.08,2,3,1539869939756
0,11,10,97.72,98.08,2,3,1539869945504
0,11,10,97.72,98.08,2,2,1539869945505
0,12,10,97.72,98.08,2,2,1539869948087
0,12,10,97.72,98.07,2,1,1539869949012
0,12,10,97.72,98.07,1,1,1539869949017
0,12,11,97.72,98.07,1,1,1539869949569
0,12,12,97.72,98.08,1,1,1539869949569
0,12,10,97.72,98.07,1,1,1539869949570
0,12,10,97.72,98.07,2,1,1539869950183
0,12,12,97.72,98.08,2,1,1539869950255
0,12,11,97.72,98.07,2,1,1539869953646
0,12,19,97.72,98.07,2,1,1539869953923
0,12,11,97.72,98.07,2,1,1539869953923
0,12,11,97.72,98.07,1,1,1539869953923
0,12,19,97.72,98.07,1,1,1539869954941
0,12,11,97.72,98.07,1,1,1539869954941
0,12,11,97.72,98.07,2,1,1539869954942
0,10,11,97.9,98.07,1,1,1539869962612
0,12,11,97.72,98.07,2,1,1539869962612
0,12,11,97.72,98.07,2,1,1539869962629
0,12,19,97.72,98.07,2,1,1539869962629
0,12,11,97.72,98.07,1,1,1539869962630
0,12,11,97.71,98.07,1,1,1539869962916
0,12,19,97.71,98.07,1,1,1539869963419
0,12,10,97.71,98.06,1,1,1539869966897
0,12,10,97.71,98.06,1,2,1539869966898
0,12,10,97.71,98.05,1,1,1539869966898
0,12,10,97.71,98.05,2,1,1539869967916
0,12,12,97.71,98.05,2,1,1539869970492
0,12,10,97.71,98.05,3,1,1539869971988
0,10,12,97.9,98.05,1,1,1539869977472
0,10,10,97.9,98.06,1,3,1539869977475
0,10,10,97.9,98.05,1,1,1539869977776
0,10,10,97.9,98.05,1,1,1539869978012
0,10,8,97.9,97.91,1,1,1539869978012
0,10,11,97.9,97.91,1,1,1539869978012
0,10,10,97.9,98.05,1,1,1539869978012
0,19,12,97.79,97.91,1,1,1539869978013
0,19,10,97.79,98.05,1,1,1539869978013
0,12,12,97.71,97.91,2,1,1539869978013
0,12,10,97.71,98.05,2,1,1539869978013
0,17,10,97.75,98.05,1,1,1539869978013
0,17,12,97.75,97.98,1,1,1539869978013
0,17,10,97.75,97.91,1,1,1539869978014
0,17,10,97.75,97.9,1,1,1539869978015
0,17,12,97.75,97.98,1,1,1539869978017
0,17,10,97.75,97.98,1,2,1539869978065
0,10,10,97.73,97.98,1,2,1539869978304
0,12,12,97.71,97.98,2,2,1539869979038
0,12,12,97.71,97.98,2,3,1539869979039
0,12,10,97.71,97.98,2,2,1539869979472
0,12,10,97.71,97.98,1,2,1539869981101
0,12,11,97.71,97.98,1,2,1539869981802
0,12,11,97.71,97.98,2,2,1539869985461
0,10,11,97.79,97.98,1,2,1539869988773
0,10,10,97.79,97.96,1,1,1539869995471
0,12,10,97.79,97.96,2,1,1539869999918
0,10,10,97.79,97.96,1,1,1539870000051
0,12,10,97.79,97.96,2,1,1539870001482
0,10,10,97.79,97.96,1,1,1539870002158
0,12,19,97.79,97.96,1,1,1539870002158
0,12,19,97.77,97.96,1,1,1539870002158
0,12,17,97.77,97.92,1,1,1539870002158
0,19,17,97.75,97.92,2,1,1539870002158
0,12,17,97.71,97.92,1,1,1539870002159
0,10,17,97.79,97.92,2,1,1539870002159
0,10,17,97.79,97.92,1,1,1539870002159
0,10,17,97.79,97.92,2,1,1539870002159
0,12,17,97.71,97.92,1,1,1539870002160
0,12,10,97.71,97.91,1,1,1539870002223
0,12,10,97.71,97.92,1,2,1539870002233
0,10,10,97.71,97.92,2,2,1539870004249
0,12,10,97.71,97.92,1,2,1539870009955
0,12,10,97.71,97.91,1,1,1539870009957
0,8,10,97.71,97.91,1,1,1539870012042
0,2,10,97.72,97.91,1,1,1539870014048
0,2,19,97.72,97.91,1,1,1539870014176
0,2,10,97.72,97.91,1,2,1539870014283
0,2,19,97.72,97.91,1,1,1539870021944
0,10,19,97.72,97.91,2,1,1539870031778
0,12,19,97.9,97.91,1,1,1539870033012
0,12,10,97.9,97.92,1,1,1539870033012
0,17,10,97.76,97.92,1,1,1539870033012
0,17,12,97.76,97.95,1,1,1539870033012
0,17,10,97.76,97.96,1,1,1539870033013
0,17,10,97.8,97.96,1,1,1539870033013
0,17,10,97.8,97.96,1,1,1539870033014
0,17,10,97.8,97.93,1,1,1539870033014
0,17,10,97.8,97.96,1,1,1539870033015
0,17,10,97.8,97.93,1,2,1539870033015
0,17,12,97.8,97.98,1,2,1539870033175
0,19,12,97.77,97.98,1,2,1539870033307
0,17,12,97.82,97.98,1,1,1539870034147
0,19,12,97.77,97.98,1,1,1539870034147
0,17,10,97.82,97.99,1,2,1539870034147
0,17,11,97.82,98.06,1,1,1539870034147
0,17,10,97.82,97.99,1,1,1539870034148
0,17,11,97.82,98.06,1,1,1539870034149
0,17,10,97.82,98.06,1,1,1539870034164
0,17,10,97.82,98.06,1,2,1539870034164
0,17,10,97.82,98.06,1,1,1539870034211
0,17,10,97.82,98.06,1,2,1539870034231
0,19,10,97.77,98.06,1,2,1539870034318
0,19,10,97.77,98.06,1,1,1539870037577
0,8,10,97.81,98.06,1,1,1539870037581
0,8,11,97.81,98.09,1,1,1539870037595
0,8,10,97.81,98.09,1,1,1539870038364
0,10,10,98.06,98.09,1,1,1539870038752
0,8,10,97.81,98.09,1,1,1539870038753
0,8,10,97.81,98.11,1,1,1539870038753
0,12,10,97.81,98.11,2,1,1539870042312
0,12,10,97.81,98.11,2,2,1539870042992
0,12,10,97.81,98.11,3,2,1539870043009
0,2,10,97.82,98.11,1,2,1539870046876
0,12,10,97.82,98.11,2,2,1539870047046
0,12,10,97.82,98.11,3,2,1539870049080
0,12,10,98.09,98.11,1,2,1539870050021
0,12,19,97.82,98.31,3,1,1539870050021
0,12,11,98.09,98.14,1,1,1539870050021
0,8,19,97.94,98.36,1,1,1539870050021
0,12,11,97.82,98.14,3,1,1539870050021
0,8,19,97.94,98.31,1,1,1539870050021
0,3,19,97.88,98.36,1,1,1539870050022
0,3,19,97.88,98.3,1,1,1539870050022
0,19,19,97.88,98.3,2,1,1539870050024
0,12,19,97.88,98.3,2,1,1539870050032
0,17,19,97.88,98.3,1,1,1539870050112
0,11,10,97.88,98.4,2,1,1539870050197
0,17,10,97.88,98.4,1,1,1539870050197
0,3,10,97.89,98.4,1,1,1539870056717
0,10,11,97.89,98.4,2,1,1539870056832
0,10,11,97.89,98.2,2,1,1539870067193
0,10,11,97.89,98.2,2,2,1539870069443
0,10,11,97.89,98.2,3,2,1539870079521
0,8,11,97.97,98.2,1,2,1539870081020
0,10,11,97.98,98.2,1,2,1539870082555
0,12,11,97.98,98.2,2,2,1539870083787
0,12,11,97.98,98.2,3,2,1539870085049
0,12,11,97.98,98.2,2,2,1539870085150
0,12,12,97.98,98.2,2,1,1539870086152
0,12,12,97.98,98.29,2,1,1539870086152
0,12,11,97.98,98.4,2,1,1539870086152
0,12,11,98.03,98.4,1,1,1539870086153
0,17,11,98.04,98.4,1,1,1539870086153
0,12,11,98.03,98.4,2,1,1539870086153
0,17,11,98.07,98.4,1,1,1539870086153
0,19,11,98.09,98.4,1,1,1539870086157
0,12,11,98.09,98.4,1,1,1539870086183
0,10,11,98.2,98.4,1,1,1539870086526
0,10,11,98.2,98.4,2,1,1539870086585
0,12,11,98.2,98.4,3,1,1539870089244
0,12,11,98.2,98.4,4,1,1539870089252
0,12,11,98.2,98.4,3,1,1539870089493
0,12,11,98.2,98.4,4,1,1539870090500
0,12,11,98.2,98.4,3,1,1539870090507
0,10,11,98.2,98.4,2,1,1539870090601
0,12,11,98.2,98.4,2,1,1539870091556
0,12,10,98.2,98.4,2,2,1539870091570
0,12,10,98.2,98.4,3,2,1539870091620
0,10,10,98.2,98.4,2,2,1539870092150
0,12,10,98.2,98.4,3,2,1539870093158
0,12,10,98.2,98.39,3,1,1539870094633
0,10,10,98.2,98.39,2,1,1539870097603
0,12,10,98.2,98.39,3,1,1539870098618
0,10,10,98.2,98.39,2,1,1539870098881
0,12,10,98.2,98.39,3,1,1539870099978
0,10,10,98.2,98.39,2,1,1539870102926
0,12,10,98.2,98.39,3,1,1539870103928
0,12,10,98.2,98.4,3,2,1539870104171
0,12,19,98.2,98.62,3,1,1539870104172
0,19,3,98.24,98.64,1,1,1539870104173
0,17,15,98.24,98.62,2,1,1539870104173
0,17,3,98.24,98.64,2,1,1539870104173
0,17,3,98.24,98.64,2,1,1539870104174
0,17,3,98.24,98.64,2,1,1539870104174
0,17,10,98.24,98.43,2,1,1539870104174
0,17,10,98.24,98.4,2,1,1539870104174
0,17,3,98.28,98.64,1,1,1539870104175
0,12,3,98.24,98.64,1,1,1539870104203
0,12,3,98.24,98.64,2,1,1539870104250
0,12,15,98.24,98.64,2,1,1539870104315
0,12,3,98.24,98.64,2,1,1539870104316
0,17,3,98.24,98.64,1,1,1539870104324
0,3,3,98.24,98.64,1,1,1539870104335
0,15,15,98.24,98.64,1,1,1539870104356
0,12,3,98.24,98.64,1,1,1539870104366
0,12,15,98.24,98.64,1,1,1539870104456
0,12,3,98.24,98.64,1,1,1539870104524
0,12,15,98.24,98.64,1,1,1539870104580
0,12,3,98.24,98.64,1,1,1539870104581
0,12,15,98.24,98.64,1,1,1539870104656
0,12,3,98.24,98.66,1,1,1539870104673
0,12,15,98.24,98.66,1,1,1539870104768
0,12,10,98.24,98.7,1,2,1539870104769
0,11,10,98.24,98.7,2,2,1539870104932
0,12,10,98.24,98.7,2,2,1539870106543
0,12,3,98.24,98.65,2,1,1539870106556
0,12,3,98.24,98.66,2,1,1539870107047
0,12,15,98.24,98.65,2,1,1539870107047
0,12,15,98.24,98.65,2,1,1539870107098
0,10,15,98.39,98.65,1,1,1539870107521
0,10,10,98.39,98.7,1,2,1539870107522
0,10,10,98.39,98.7,1,1,1539870107523
0,10,12,98.39,98.75,1,2,1539870107524
0,10,10,98.39,98.75,1,2,1539870107531
0,12,10,98.39,98.75,2,2,1539870107532
0,12,10,98.39,98.75,2,3,1539870107532
0,12,12,98.39,98.75,2,2,1539870107826
0,11,10,98.39,98.75,2,2,1539870107902
0,11,10,98.39,98.75,2,3,1539870107958
0,12,10,98.39,98.75,1,3,1539870107980
0,12,10,98.39,98.75,2,3,1539870108284
0,12,10,98.39,98.75,3,3,1539870108932
0,12,10,98.39,98.75,3,5,1539870109611
0,12,10,98.39,98.74,3,1,1539870109613
0,10,12,98.57,98.74,1,1,1539870114521
0,12,12,98.39,98.74,3,1,1539870114521
0,12,12,98.39,98.74,3,1,1539870119542
0,11,12,98.57,98.74,1,1,1539870119542
0,2,10,98.39,98.74,2,1,1539870122063
0,11,10,98.4,98.74,1,1,1539870122713
0,12,10,98.4,98.74,2,1,1539870122754
0,11,10,98.4,98.74,3,1,1539870123068
0,11,11,98.4,98.74,3,1,1539870123286
0,11,19,98.4,98.74,4,1,1539870125738
0,11,12,98.4,98.65,4,3,1539870129200
0,12,12,98.4,98.65,3,3,1539870129617
0,11,12,98.4,98.65,3,3,1539870129618
0,11,10,98.4,98.64,3,1,1539870130649
0,11,10,98.4,98.64,4,1,1539870131221
0,11,10,98.52,98.64,1,1,1539870132739
0,10,10,98.52,98.64,2,1,1539870133412
0,10,12,98.52,98.65,2,3,1539870133413
0,11,12,98.52,98.65,2,3,1539870134211
0,11,10,98.52,98.65,2,1,1539870134211
0,11,10,98.52,98.67,2,2,1539870134211
0,11,10,98.52,98.67,2,1,1539870134212
0,12,10,98.55,98.67,1,1,1539870134212
0,12,10,98.55,98.75,1,4,1539870134215
0,19,10,98.55,98.75,1,4,1539870134408
0,19,10,98.55,98.75,2,4,1539870135317
0,10,10,98.55,98.75,1,4,1539870135759
0,15,10,98.52,98.75,1,4,1539870136166
0,19,10,98.55,98.75,1,4,1539870136166
0,15,10,98.52,98.75,1,4,1539870136167
0,15,19,98.52,98.55,1,1,1539870136167
0,15,17,98.52,98.7,1,1,1539870136167
0,15,8,98.52,98.53,1,1,1539870136167
0,12,17,98.43,98.7,1,1,1539870136167
0,12,10,98.43,98.53,1,1,1539870136168
0,12,15,98.43,98.52,1,1,1539870136169
0,11,15,98.51,98.52,1,1,1539870136170
0,12,15,98.43,98.52,1,1,1539870136170
0,11,15,98.4,98.52,1,1,1539870136223
0,11,15,98.4,98.52,2,1,1539870136780
0,19,15,98.4,98.52,2,1,1539870136886
0,12,15,98.4,98.52,2,1,1539870136886
0,10,15,98.4,98.52,1,1,1539870136887
0,11,15,98.4,98.52,2,1,1539870137925
0,11,10,98.4,98.53,2,1,1539870138768
0,19,10,98.4,98.53,3,1,1539870138769
0,19,12,98.4,98.68,3,1,1539870140767
0,19,10,98.4,98.68,3,5,1539870140769
0,19,10,98.4,98.68,3,6,1539870140779
0,12,10,98.4,98.68,2,6,1539870144928
0,10,10,98.4,98.68,2,6,1539870144929
0,11,10,98.4,98.68,3,6,1539870145976
0,11,10,98.4,98.68,4,6,1539870150818
0,11,10,98.4,98.68,4,3,1539870151068
0,11,10,98.4,98.67,4,1,1539870152007
0,11,12,98.4,98.67,4,2,1539870152011
0,11,12,98.4,98.67,4,1,1539870152389
0,19,12,98.4,98.67,3,1,1539870152863
0,19,10,98.4,98.67,3,2,1539870153557
0,19,10,98.4,98.66,3,1,1539870153558
0,11,10,98.53,98.66,1,1,1539870157818
0,19,10,98.4,98.66,3,1,1539870157818
0,12,10,98.4,98.66,3,1,1539870157819
0,10,10,98.4,98.66,2,1,1539870157819
0,12,10,98.4,98.66,3,1,1539870157820
0,12,10,98.4,98.66,4,1,1539870159863
0,12,10,98.4,98.66,3,1,1539870159964
0,12,10,98.4,98.66,4,1,1539870160974
0,12,10,98.4,98.66,3,1,1539870161554
0,12,10,98.4,98.66,4,1,1539870162564
0,12,10,98.4,98.66,3,1,1539870162909
0,12,10,98.4,98.66,4,1,1539870163906
0,12,10,98.4,98.66,3,1,1539870164193
0,12,10,98.4,98.66,4,1,1539870165200
0,12,10,98.4,98.66,3,1,1539870168251
0,12,10,98.4,98.66,4,1,1539870172523
0,12,10,98.4,98.66,3,1,1539870172624
0,12,10,98.4,98.66,4,1,1539870173649
0,12,10,98.4,98.66,3,1,1539870173757
0,12,12,98.4,98.66,3,3,1539870175181
0,12,12,98.4,98.66,3,1,1539870175181
0,12,12,98.4,98.66,4,3,1539870175198
0,12,12,98.4,98.66,3,3,1539870179155
0,12,10,98.4,98.62,3,2,1539870180046
0,12,10,98.4,98.62,3,1,1539870180047
0,12,10,98.4,98.61,3,1,1539870180051
0,12,10,98.4,98.61,4,1,1539870180187
0,12,10,98.4,98.61,3,1,1539870184018
0,12,18,98.4,98.56,3,1,1539870185814
0,12,18,98.4,98.56,4,1,1539870185815
0,12,10,98.4,98.59,4,1,1539870185833
0,12,10,98.4,98.59,3,1,1539870186387
0,12,10,98.4,98.59,3,2,1539870186968
0,12,10,98.4,98.59,4,2,1539870187386
0,12,10,98.4,98.59,3,2,1539870199532
0,10,10,98.4,98.59,2,2,1539870199533
0,12,10,98.4,98.59,2,2,1539870199591
0,12,10,98.4,98.59,2,3,1539870202777
0,12,10,98.4,98.59,3,3,1539870202778
0,10,10,98.4,98.59,2,3,1539870202878
0,10,10,98.4,98.59,2,3,1539870204906
0,11,10,98.47,98.59,1,3,1539870204906
0,10,10,98.4,98.59,3,3,1539870209699
0,3,10,98.4,98.59,2,3,1539870210781
0,10,10,98.4,98.59,3,3,1539870214899
0,10,10,98.4,98.59,4,3,1539870215853
0,10,10,98.4,98.59,3,3,1539870217201
0,10,11,98.4,98.59,3,5,1539870217724
0,11,11,98.41,98.59,1,5,1539870221956
0,10,11,98.4,98.59,2,5,1539870222342
0,10,11,98.4,98.59,3,5,1539870222342
0,8,19,98.4,98.5,1,1,1539870222342
0,8,11,98.4,98.59,1,5,1539870222342
0,19,19,98.26,98.5,1,1,1539870222342
0,19,8,98.26,98.45,1,1,1539870222343
0,19,8,98.26,98.45,2,1,1539870222343
0,19,19,98.26,98.5,2,1,1539870222346
0,19,10,98.26,98.46,2,3,1539870222346
0,19,10,98.26,98.47,2,3,1539870222349
0,19,10,98.26,98.47,2,4,1539870222349
0,19,10,98.26,98.47,2,5,1539870222350
0,19,10,98.26,98.46,2,1,1539870222354
0,19,10,98.26,98.46,2,2,1539870222375
0,19,10,98.26,98.46,2,3,1539870222376
0,12,10,98.26,98.46,3,3,1539870223344
0,12,10,98.26,98.46,4,3,1539870227262
0,12,10,98.26,98.46,4,4,1539870228170
0,12,10,98.38,98.46,1,4,1539870229839
0,12,10,98.26,98.46,3,4,1539870229839
0,12,10,98.38,98.46,2,4,1539870229839
0,12,10,98.38,98.46,2,3,1539870230202
0,12,10,98.38,98.46,2,2,1539870230876
0,12,12,98.38,98.46,2,1,1539870230877
0,12,10,98.45,98.5,1,1,1539870230877
0,15,10,98.38,98.5,2,1,1539870230877
0,19,10,98.4,98.5,1,1,1539870230877
0,15,10,98.38,98.5,2,1,1539870230877
0,12,10,98.38,98.5,1,1,1539870230879
0,12,10,98.38,98.5,1,2,1539870230883
0,12,10,98.38,98.5,1,3,1539870230887
0,11,10,98.38,98.5,1,3,1539870230971
0,11,10,98.38,98.5,2,3,1539870231877
0,11,10,98.38,98.5,2,2,1539870232283
0,12,10,98.38,98.5,2,2,1539870233887
0,11,10,98.38,98.5,2,2,1539870234504
0,11,11,98.38,98.5,2,1,1539870234584
0,12,11,98.45,98.5,1,1,1539870236840
0,12,11,98.45,98.5,2,1,1539870236841
0,12,10,98.45,98.5,2,1,1539870236841
0,12,11,98.45,98.59,2,5,1539870236893
0,12,11,98.5,98.59,1,5,1539870236894
0,12,11,98.49,98.59,1,5,1539870236894
0,12,11,98.45,98.59,2,5,1539870236896
0,8,11,98.45,98.59,2,5,1539870236896
0,12,12,98.45,98.59,2,1,1539870236896
0,8,12,98.45,98.69,2,1,1539870236897
0,12,12,98.58,98.69,1,1,1539870236897
0,17,12,98.48,98.69,1,1,1539870236897
0,12,10,98.58,98.75,1,2,1539870236897
0,17,10,98.48,98.75,2,2,1539870236897
0,17,17,98.48,98.71,2,1,1539870236897
0,17,10,98.48,98.71,2,3,1539870236898
0,10,10,98.59,98.71,1,3,1539870236916
0,10,10,98.59,98.71,4,3,1539870236918
0,10,12,98.59,98.7,4,1,1539870236940
0,17,12,98.48,98.7,1,1,1539870237012
0,10,12,98.59,98.7,3,1,1539870237012
0,17,3,98.48,98.7,1,1,1539870237025
0,12,3,98.45,98.7,1,1,1539870237124
0,12,12,98.45,98.73,1,1,1539870238111
0,12,12,98.45,98.73,2,1,1539870238483
0,12,10,98.45,98.65,2,1,1539870238511
0,12,10,98.45,98.64,2,1,1539870238513
0,12,12,98.45,98.64,2,1,1539870240293
0,12,12,98.45,98.64,3,1,1539870241263
0,12,11,98.45,98.64,3,2,1539870241846
0,12,11,98.45,98.64,2,2,1539870243100
0,12,10,98.45,98.63,2,1,1539870243481
0,12,12,98.45,98.62,2,2,1539870243483
0,12,12,98.45,98.62,1,2,1539870243839
0,12,12,98.45,98.62,2,2,1539870244105
0,12,12,98.45,98.62,3,2,1539870247158
0,12,12,98.45,98.62,4,2,1539870253042
0,12,12,98.45,98.62,3,2,1539870253384
0,12,12,98.45,98.62,2,2,1539870254213
0,12,12,98.45,98.62,3,2,1539870254576
0,12,10,98.45,98.62,4,2,1539870255282
0,12,10,98.45,98.62,3,2,1539870260077
0,12,10,98.45,98.62,2,2,1539870261876
0,12,10,98.45,98.62,3,2,1539870262925
0,12,10,98.45,98.62,2,2,1539870263619
0,12,10,98.45,98.62,3,2,1539870264662
0,12,10,98.45,98.62,2,2,1539870265077
0,12,10,98.45,98.62,3,2,1539870266092
0,12,10,98.45,98.62,4,2,1539870267052
0,12,10,98.45,98.62,3,2,1539870267053
0,12,10,98.45,98.62,4,2,1539870268082
0,12,10,98.45,98.62,5,2,1539870269700
0,12,10,98.45,98.62,4,2,1539870269740
0,12,12,98.45,98.62,4,2,1539870269749
0,12,10,98.45,98.62,5,2,1539870270795
0,12,10,98.45,98.62,4,2,1539870276673
0,12,10,98.45,98.62,3,2,1539870276675
0,12,12,98.45,98.62,3,2,1539870276723
0,12,11,98.45,98.61,3,1,1539870277133
0,12,11,98.45,98.61,3,3,1539870277134
0,12,11,98.45,98.61,2,3,1539870278155
0,12,11,98.45,98.61,3,3,1539870285525
0,12,11,98.45,98.61,2,3,1539870285625
0,12,11,98.45,98.61,3,3,1539870285690
0,7,11,98.45,98.61,3,3,1539870292689
0,12,11,98.54,98.61,1,3,1539870292689
0,7,11,98.45,98.61,3,3,1539870292690
0,7,10,98.45,98.58,3,1,1539870292690
0,7,19,98.45,98.59,3,1,1539870292690
0,12,10,98.45,98.58,2,1,1539870292691
0,12,10,98.45,98.58,2,2,1539870292742
0,12,10,98.45,98.58,3,2,1539870292743
0,12,10,98.45,98.58,4,2,1539870294766
0,12,10,98.45,98.6,4,4,1539870294776
0,12,10,98.45,98.6,4,5,1539870294776
0,12,10,98.45,98.6,4,3,1539870294776
0,12,10,98.45,98.6,4,1,1539870294776
0,12,11,98.45,98.61,4,1,1539870294779
0,12,11,98.45,98.61,5,1,1539870295808
0,12,10,98.45,98.61,5,1,1539870297055
0,12,10,98.45,98.63,5,1,1539870297056
0,12,12,98.45,98.75,5,2,1539870297056
0,12,10,98.45,98.75,4,2,1539870297061
0,12,12,98.45,98.75,4,2,1539870297083
0,12,11,98.45,98.61,4,2,1539870297099
0,12,12,98.45,98.75,4,2,1539870297111
0,12,10,98.45,98.75,3,2,1539870299989
0,18,10,98.45,98.75,2,2,1539870300011
0,12,10,98.45,98.75,3,2,1539870301018
0,18,10,98.45,98.75,2,2,1539870301380
0,11,10,98.46,98.75,1,2,1539870301392
0,12,10,98.46,98.75,2,2,1539870301490
0,12,10,98.56,98.75,1,2,1539870301764
0,12,12,98.56,98.74,1,1,1539870301785
0,19,12,98.56,98.74,2,1,1539870301789
0,19,10,98.56,98.74,2,1,1539870302271
0,19,12,98.56,98.74,2,1,1539870302282
0,12,12,98.56,98.74,2,1,1539870303277
0,12,10,98.56,98.74,2,3,1539870304444
0,11,10,98.56,98.74,3,3,1539870314462
0,11,10,98.56,98.73,3,2,1539870314478
0,11,10,98.56,98.73,3,3,1539870314479
0,11,10,98.56,98.72,3,1,1539870314482
0,11,10,98.56,98.72,3,2,1539870314483
0,11,10,98.56,98.71,3,2,1539870314484
0,11,10,98.56,98.71,3,3,1539870314485
0,11,10,98.56,98.7,3,1,1539870314488
0,11,10,98.56,98.7,3,2,1539870314489
0,11,10,98.56,98.7,3,4,1539870314490
0,12,10,98.56,98.7,3,4,1539870314564
0,11,10,98.56,98.7,2,4,1539870314565
0,11,10,98.56,98.7,3,4,1539870315584
0,11,10,98.56,98.7,3,3,1539870315660
0,11,10,98.56,98.7,3,2,1539870315661
0,11,10,98.56,98.69,3,1,1539870315805
0,11,10,98.56,98.69,3,2,1539870315806
0,11,12,98.56,98.69,3,2,1539870315824
0,19,12,98.56,98.69,3,2,1539870316101
0,12,12,98.56,98.69,3,2,1539870316102
0,11,12,98.56,98.69,2,2,1539870316102
0,11,12,98.56,98.69,2,1,1539870316116
0,12,19,98.59,98.7,1,1,1539870316121
0,11,19,98.56,98.7,2,1,1539870316121
0,12,10,98.59,98.71,1,2,1539870316125
0,19,10,98.64,98.71,1,2,1539870316125
0,12,10,98.59,98.71,1,2,1539870316155
0,12,10,98.59,98.71,2,2,1539870316165
0,8,10,98.59,98.71,1,2,1539870316335
0,12,10,98.59,98.71,2,2,1539870316353
0,12,10,98.59,98.71,3,2,1539870317105
0,12,10,98.59,98.71,3,1,1539870318214
0,12,10,98.59,98.74,3,4,1539870318216
0,12,10,98.59,98.73,3,1,1539870318816
0,12,10,98.59,98.73,3,2,1539870318817
0,12,10,98.59,98.73,3,1,1539870320808
0,12,10,98.59,98.74,3,3,1539870320812
0,11,10,98.71,98.74,1,3,1539870321061
0,12,10,98.59,98.7,3,1,1539870321061
0,12,10,98.59,98.74,3,3,1539870321061
0,12,10,98.59,98.73,3,2,1539870321270
0,12,10,98.59,98.72,3,1,1539870321816
0,12,10,98.59,98.72,3,2,1539870321818
0,12,11,98.59,98.72,3,1,1539870322586
0,12,19,98.7,98.72,1,1,1539870322764
0,12,19,98.59,98.72,3,1,1539870322764
0,12,12,98.59,98.73,3,1,1539870322764
0,12,12,98.7,98.73,1,1,1539870322764
0,12,10,98.59,98.74,3,5,1539870322783
0,10,10,98.62,98.74,1,5,1539870322784
0,10,10,98.62,98.74,1,4,1539870322785
0,12,10,98.59,98.74,2,4,1539870322785
0,12,10,98.59,98.74,3,4,1539870322785
0,8,10,98.59,98.74,3,4,1539870322785
0,8,10,98.59,98.74,3,5,1539870322807
0,8,10,98.59,98.73,3,1,1539870324827
0,8,10,98.59,98.73,3,2,1539870324828
0,8,10,98.59,98.73,3,1,1539870324941
0,8,10,98.59,98.74,3,3,1539870324942
0,8,10,98.59,98.73,3,1,1539870328390
0,8,10,98.59,98.73,3,2,1539870328392
0,8,10,98.59,98.73,3,1,1539870332593
0,8,10,98.59,98.72,3,1,1539870333485
0,8,10,98.59,98.72,3,2,1539870333486
0,8,10,98.59,98.72,3,1,1539870333937
0,8,10,98.59,98.73,3,1,1539870333939
0,8,10,98.59,98.74,3,4,1539870338011
0,8,10,98.59,98.74,4,4,1539870338014
0,8,10,98.59,98.74,4,3,1539870338126
0,8,10,98.59,98.74,4,2,1539870338127
0,8,10,98.59,98.74,4,3,1539870338127
0,8,10,98.59,98.74,4,2,1539870346271
0,8,10,98.59,98.73,4,1,1539870346274
0,8,10,98.59,98.74,4,2,1539870346275
0,8,10,98.59,98.74,4,3,1539870346277
0,19,10,98.66,98.73,1,1,1539870346278
0,8,10,98.59,98.73,4,1,1539870346278
0,19,10,98.66,98.73,1,1,1539870346280
0,12,10,98.72,98.73,1,1,1539870346280
0,12,10,98.66,98.73,1,1,1539870346280
0,12,10,98.66,98.73,2,1,1539870346281
0,19,10,98.66,98.73,1,1,1539870346282
0,19,10,98.66,98.74,1,1,1539870346284
0,10,10,98.73,98.74,1,1,1539870346285
0,19,12,98.66,98.75,1,2,1539870346285
0,19,10,98.66,98.74,1,1,1539870346285
0,19,10,98.66,98.74,1,1,1539870346303
0,12,10,98.66,98.74,2,1,1539870346366
0,11,10,98.73,98.74,1,1,1539870346376
0,12,10,98.66,98.74,2,1,1539870346377
0,3,10,98.66,98.74,1,1,1539870346377
0,3,10,98.66,98.74,2,1,1539870346378
0,3,12,98.66,98.75,2,2,1539870346409
0,3,12,98.66,98.81,2,1,1539870346531
0,3,12,98.66,98.75,2,1,1539870346531
0,3,11,98.66,98.88,2,1,1539870346531
0,3,10,98.66,98.82,2,3,1539870346532
0,11,10,98.67,98.82,1,3,1539870346552
0,11,10,98.67,98.82,1,4,1539870347018
0,11,10,98.67,98.82,1,3,1539870347801
0,11,11,98.67,98.88,1,1,1539870348288
0,11,10,98.67,98.87,1,1,1539870348326
0,11,12,98.67,98.87,1,1,1539870348725
0,11,12,98.73,98.87,1,1,1539870349374
0,11,11,98.73,98.88,1,1,1539870350191
0,11,10,98.73,98.87,1,1,1539870350195
0,11,11,98.73,98.88,1,1,1539870350199
0,11,10,98.73,98.87,1,1,1539870350825
0,11,10,98.73,98.88,1,3,1539870351129
0,11,10,98.73,98.87,1,1,1539870352978
0,11,10,98.73,98.87,1,2,1539870352980
0,8,10,98.73,98.87,1,2,1539870353371
0,8,10,98.73,98.87,1,2,1539870353371
0,8,12,98.73,98.74,1,1,1539870353371
0,3,8,98.66,98.74,1,1,1539870353373
0,3,10,98.66,98.87,1,2,1539870353373
0,3,10,98.66,98.87,1,2,1539870353373
0,3,8,98.66,98.73,1,1,1539870353373
0,3,10,98.66,98.82,1,1,1539870353374
0,3,10,98.66,98.82,1,2,1539870353374
0,3,10,98.66,98.82,1,1,1539870353379
0,3,15,98.66,98.83,1,1,1539870353380
0,3,10,98.66,98.82,1,1,1539870353382
0,3,12,98.66,98.82,1,1,1539870353387
0,3,10,98.66,98.75,1,1,1539870353387
0,3,11,98.66,98.74,1,1,1539870353397
0,12,11,98.67,98.74,1,1,1539870353525
0,3,11,98.66,98.74,1,1,1539870354530
0,10,11,98.66,98.74,1,1,1539870362741
0,8,11,98.62,98.74,1,1,1539870362741
0,8,2,98.62,98.74,1,2,1539870367943
0,10,2,98.62,98.74,3,2,1539870370244
0,10,2,98.62,98.74,4,2,1539870376185
0,10,10,98.62,98.73,4,1,1539870380192
0,10,10,98.62,98.73,4,2,1539870380197
0,10,19,98.62,98.73,4,1,1539870381466
0,10,10,98.62,98.73,4,1,1539870381987
0,10,19,98.62,98.73,4,1,1539870382242
0,19,2,98.73,98.74,1,2,1539870382242
0,10,2,98.62,98.74,4,2,1539870382242
0,19,2,98.72,98.74,1,2,1539870382242
0,10,2,98.62,98.74,4,2,1539870382242
0,19,2,98.65,98.74,1,2,1539870382242
0,10,2,98.62,98.74,4,1,1539870382243
0,10,12,98.62,98.74,4,2,1539870382243
0,12,10,98.73,98.75,1,1,1539870382243
0,10,10,98.62,98.75,4,1,1539870382243
0,19,11,98.65,98.81,1,1,1539870382243
0,12,11,98.73,98.81,1,1,1539870382243
0,12,11,98.74,98.81,1,1,1539870382243
0,12,11,98.68,98.81,1,1,1539870382243
0,12,11,98.65,98.81,1,1,1539870382243
0,19,11,98.68,98.81,1,1,1539870382243
0,12,10,98.68,98.81,1,1,1539870382251
0,12,11,98.68,98.81,1,1,1539870382282
0,11,11,98.68,98.81,1,1,1539870382454
0,11,10,98.68,98.81,2,1,1539870382858
0,10,11,98.68,98.81,3,1,1539870382858
0,12,11,98.73,98.81,1,1,1539870383178
0,12,10,98.73,98.81,1,1,1539870383330
0,12,10,98.73,98.87,1,1,1539870383330
0,11,10,98.73,98.87,2,1,1539870384240
0,10,15,98.73,98.87,3,1,1539870384240
0,12,15,98.73,98.87,4,1,1539870384659
0,10,15,98.73,98.87,3,1,1539870384904
0,11,15,98.73,98.87,4,1,1539870385905
0,11,10,98.73,98.87,4,1,1539870385934
0,12,10,98.73,98.87,4,1,1539870386035
0,10,10,98.73,98.87,3,1,1539870386035
0,11,10,98.73,98.87,4,1,1539870387218
0,12,10,98.73,98.87,4,1,1539870387506
0,10,10,98.73,98.87,3,1,1539870387507
0,11,10,98.73,98.87,4,1,1539870388707
0,12,10,98.73,98.87,4,1,1539870388922
0,10,10,98.73,98.87,3,1,1539870388923
0,11,10,98.73,98.87,4,1,1539870389930
0,12,10,98.73,98.87,4,1,1539870390046
0,10,10,98.73,98.87,3,1,1539870390047
0,11,19,98.73,98.87,3,1,1539870390181
0,12,11,98.86,98.95,1,5,1539870390233
0,11,11,98.73,98.95,3,5,1539870390233
0,17,12,98.76,98.94,1,1,1539870390233
0,17,11,98.76,98.95,1,5,1539870390233
0,19,12,98.87,98.94,1,1,1539870390233
0,19,12,98.86,98.94,1,1,1539870390233
0,17,12,98.76,98.94,1,1,1539870390234
0,11,12,98.76,98.94,1,1,1539870390463
0,11,11,98.76,98.95,1,5,1539870390463
0,11,11,98.76,98.95,2,5,1539870391237
0,12,11,98.76,98.95,3,5,1539870391238
0,12,11,98.76,98.95,4,5,1539870391243
0,11,11,98.92,98.95,1,5,1539870392180
0,12,11,98.76,98.95,4,5,1539870392181
0,10,11,98.76,98.95,3,5,1539870392197
0,12,11,98.76,98.95,3,5,1539870392197
0,12,19,98.76,98.94,3,1,1539870393243
0,10,19,98.76,98.94,3,1,1539870393468
0,12,12,98.77,98.94,1,1,1539870393778
0,12,19,98.77,98.94,1,1,1539870393778
0,12,11,98.77,98.93,1,1,1539870393778
0,12,12,98.77,98.94,1,1,1539870393789
0,12,10,98.77,98.94,1,2,1539870406235
0,11,10,98.77,98.94,2,2,1539870407549
0,11,10,98.77,98.94,3,2,1539870409033
0,12,10,98.77,98.94,2,2,1539870409349
0,11,10,98.77,98.94,2,2,1539870409350
0,11,10,98.77,98.94,3,2,1539870410350
0,11,10,98.77,98.94,4,2,1539870410556
0,11,10,98.77,98.94,3,2,1539870412413
0,11,10,98.77,98.94,4,2,1539870413419
0,11,10,98.77,98.94,3,2,1539870413630
0,11,10,98.77,98.94,2,2,1539870414567
0,11,10,98.92,98.94,1,2,1539870414567
0,11,10,98.77,98.94,3,2,1539870414961
0,12,10,98.77,98.94,2,2,1539870416340
0,11,10,98.77,98.94,2,2,1539870416341
0,11,10,98.77,98.94,1,2,1539870417556
0,11,11,98.77,98.94,1,2,1539870421797
0,11,10,98.77,98.94,1,4,1539870422684
0,10,10,98.77,98.94,1,4,1539870433554
0,11,10,98.77,98.94,2,4,1539870438407
0,12,10,98.81,98.94,1,4,1539870438409
0,12,11,98.81,98.95,1,4,1539870438410
0,12,11,98.81,98.95,3,4,1539870438410
0,12,11,98.81,98.95,2,4,1539870438410
0,17,11,98.82,98.95,1,4,1539870438410
0,19,11,98.85,98.95,1,4,1539870438410
0,8,11,98.86,98.95,1,3,1539870438410
0,12,8,98.81,98.94,1,1,1539870438410
0,19,11,98.85,98.95,1,3,1539870438410
0,8,11,98.86,98.95,1,2,1539870438410
0,8,11,98.86,98.95,2,2,1539870438410
0,8,12,98.86,99.02,2,2,1539870438410
0,8,12,98.86,99.02,1,2,1539870438413
0,19,12,98.85,99.02,1,2,1539870438420
0,17,12,98.84,99.02,1,2,1539870438420
0,17,11,98.84,99.01,1,1,1539870438436
0,12,11,98.81,99.01,1,1,1539870438437
0,11,11,98.82,99.01,1,1,1539870438448
0,11,10,98.82,99.01,1,2,1539870439040
0,11,10,98.82,99.01,2,2,1539870439429
0,11,7,98.82,99.01,2,1,1539870439731
0,11,7,98.82,99.01,1,1,1539870440378
0,11,10,98.82,99.01,1,2,1539870440379
0,11,10,98.82,99.01,2,2,1539870441389
0,11,7,98.82,99.01,2,2,1539870441690
0,11,10,98.82,99.01,2,3,1539870442238
0,11,7,98.82,99.01,2,2,1539870443540
0,11,10,98.82,99.01,2,3,1539870444092
0,11,10,98.82,99.01,3,3,1539870444414
0,12,10,98.82,99.01,4,3,1539870448874
0,12,10,98.82,99.01,4,4,1539870448874
0,12,10,98.82,99.01,4,3,1539870451629
0,12,10,98.82,99.01,4,4,1539870451835
0,12,10,98.82,99.01,3,4,1539870453073
0,12,10,98.82,99.01,3,4,1539870454100
0,12,10,98.82,99.01,4,4,1539870454100
0,12,10,98.82,99.01,2,4,1539870454378
0,12,10,98.82,99.01,3,4,1539870455663
0,12,10,98.82,99.01,3,2,1539870455896
0,12,10,98.82,99.01,4,2,1539870456258
0,12,10,98.82,99.01,6,2,1539870460667
0,12,10,98.82,99.01,6,3,1539870461732
0,12,10,98.82,99.01,6,4,1539870464482
0,12,10,98.82,99.01,6,5,1539870470294
0,12,10,98.82,99.01,5,5,1539870472640
0,12,10,98.82,99.01,5,6,1539870472731
0,12,10,98.82,99.01,4,6,1539870473539
0,12,10,98.82,99,4,1,1539870473540
0,12,12,98.82,99,4,2,1539870473543
0,12,12,98.82,99,4,3,1539870473543
0,12,10,98.82,98.99,4,1,1539870473558
0,12,10,98.82,98.98,4,1,1539870473559
0,12,10,98.82,98.99,4,5,1539870473563
0,12,10,98.82,98.98,4,1,1539870473848
0,12,10,98.82,98.99,4,5,1539870473849
0,12,10,98.82,98.99,5,5,1539870474891
0,12,10,98.82,98.99,5,4,1539870475194
0,12,10,98.82,98.99,5,3,1539870475553
0,12,10,98.82,98.99,5,2,1539870475553
0,12,10,98.82,98.99,4,2,1539870476235
0,12,11,98.82,98.99,4,1,1539870476983
0,12,10,98.82,98.97,4,1,1539870476984
0,12,10,98.82,98.97,4,2,1539870476985
0,12,10,98.82,98.97,4,3,1539870477064
0,12,10,98.82,98.97,4,4,1539870477780
0,12,10,98.82,98.97,4,3,1539870478237
0,12,10,98.82,98.97,5,3,1539870479938
0,12,10,98.83,98.97,1,3,1539870480635
0,12,10,98.83,98.97,2,3,1539870480639
0,12,10,98.83,98.97,2,2,1539870480658
0,12,10,98.83,98.97,3,2,1539870482453
0,12,10,98.83,98.97,2,2,1539870483623
0,12,10,98.83,98.97,2,3,1539870483623
0,12,10,98.83,98.97,2,4,1539870483625
0,12,10,98.83,98.97,2,5,1539870483638
0,11,10,98.89,98.97,1,5,1539870483936
0,11,10,98.89,98.97,2,5,1539870483938
0,11,10,98.89,98.97,2,4,1539870484238
0,11,10,98.89,98.97,2,3,1539870484243
0,10,10,98.89,98.97,3,3,1539870484284
0,12,10,98.96,98.97,1,3,1539870484926
0,10,10,98.89,98.97,3,3,1539870484926
0,12,2,98.89,98.97,3,1,1539870485285
0,12,10,98.89,98.97,3,2,1539870485285
0,12,2,98.89,98.97,5,1,1539870485287
0,12,10,98.89,99.01,5,4,1539870486258
0,12,8,98.89,99,5,1,1539870486309
0,12,10,98.89,99.01,5,4,1539870487227
0,19,10,98.91,99.01,1,4,1539870487227
0,12,10,98.89,99.01,5,4,1539870487228
0,19,10,98.93,99.01,1,4,1539870487232
0,12,10,98.93,99.01,1,4,1539870487257
0,12,10,98.93,99.01,1,3,1539870487512
0,10,10,98.93,99.01,2,3,1539870489239
0,11,10,98.93,99.01,3,3,1539870490937
0,10,10,98.93,99.01,2,3,1539870490940
0,11,10,98.93,99.01,2,3,1539870491237
0,11,10,98.93,99.01,2,4,1539870491261
0,1,10,98.91,99.01,1,4,1539870491369
0,10,10,98.93,99.01,1,4,1539870491369
0,12,10,98.89,99.01,4,4,1539870491369
0,12,10,98.89,99,4,1,1539870491371
0,12,10,98.89,99.01,4,5,1539870491372
0,12,10,98.89,99,4,1,1539870491373
0,12,12,98.89,98.99,4,1,1539870491387
0,12,12,98.89,98.99,5,1,1539870491948
0,12,12,98.89,98.99,4,1,1539870492702
0,10,19,98.89,98.99,3,1,1539870498167
0,10,12,98.89,98.99,3,1,1539870498168
0,12,12,98.89,98.99,3,1,1539870498920
0,10,19,98.89,98.99,2,1,1539870498920
0,12,19,98.89,98.99,2,1,1539870498920
0,11,19,98.82,98.99,2,1,1539870498920
0,11,17,98.82,98.97,2,1,1539870498920
0,11,12,98.82,98.9,2,1,1539870498920
0,12,12,98.89,98.9,1,1,1539870498920
0,11,12,98.82,98.9,2,1,1539870498920
0,11,17,98.82,98.97,2,1,1539870498922
0,11,17,98.82,98.96,2,1,1539870498927
0,11,10,98.82,98.96,2,2,1539870498931
0,11,10,98.82,98.96,2,3,1539870498932
0,11,10,98.82,98.96,2,2,1539870498933
0,11,17,98.82,98.96,2,1,1539870498934
0,11,10,98.82,98.97,2,4,1539870498952
0,11,10,98.82,98.96,2,1,1539870498953
0,11,10,98.82,98.96,2,2,1539870498962
0,11,10,98.82,98.96,2,3,1539870498963
0,11,10,98.82,98.96,2,2,1539870498968
0,11,10,98.82,98.96,2,3,1539870498975
0,11,10,98.82,98.96,3,3,1539870499210
0,11,10,98.82,98.96,3,4,1539870499305
0,11,10,98.82,98.96,3,5,1539870499540
0,11,10,98.82,98.96,3,6,1539870499632
0,11,10,98.82,98.96,2,5,1539870500236
0,11,10,98.82,98.96,2,6,1539870500236
0,11,19,98.82,98.95,2,1,1539870500237
0,19,19,98.8,98.95,2,1,1539870500457
0,8,19,98.8,98.95,1,1,1539870500458
0,8,10,98.8,98.95,1,2,1539870500581
0,8,8,98.8,98.94,1,1,1539870500581
0,15,10,98.78,98.94,1,1,1539870500852
0,15,19,98.78,98.89,1,1,1539870500853
0,8,19,98.77,98.89,1,1,1539870500853
0,1,19,98.78,98.89,1,1,1539870500856
0,1,17,98.78,98.91,1,1,1539870500858
0,1,10,98.78,98.91,1,2,1539870500859
0,1,17,98.78,98.91,1,1,1539870500861
0,1,19,98.78,98.9,1,1,1539870500864
0,1,10,98.78,98.89,1,1,1539870501956
0,1,19,98.78,98.9,1,1,1539870501962
0,1,3,98.78,98.9,1,1,1539870501963
0,1,10,98.78,98.9,1,1,1539870501974
0,1,10,98.78,98.89,1,1,1539870501974
0,1,10,98.78,98.88,1,1,1539870502285
0,8,10,98.77,98.88,1,1,1539870502287
0,8,10,98.77,98.87,1,1,1539870502334
0,8,10,98.77,98.86,1,1,1539870502335
0,8,10,98.77,98.85,1,1,1539870502337
0,19,10,98.64,98.85,1,1,1539870502860
0,12,10,98.54,98.85,1,1,1539870502861
0,12,10,98.54,98.84,1,1,1539870502861
0,12,10,98.54,98.83,1,1,1539870502864
0,15,10,98.54,98.83,1,1,1539870502865
0,12,10,98.54,98.83,1,1,1539870502867
0,12,10,98.54,98.82,1,1,1539870502867
0,12,12,98.54,98.82,1,3,1539870502869
0,12,12,98.54,98.82,1,2,1539870502869
0,12,10,98.54,98.81,1,1,1539870502908
0,12,10,98.54,98.81,1,2,1539870502909
0,12,12,98.54,98.81,1,3,1539870502910
0,12,10,98.54,98.8,1,1,1539870502931
0,12,10,98.54,98.79,1,1,1539870502932
0,12,10,98.54,98.78,1,1,1539870502933
0,12,12,98.54,98.78,1,3,1539870502936
0,12,12,98.54,98.78,1,2,1539870502936
0,12,10,98.54,98.77,1,1,1539870502938
0,12,12,98.54,98.77,1,2,1539870502940
0,12,12,98.54,98.77,1,4,1539870502940
0,12,12,98.54,98.77,1,3,1539870502940
0,12,3,98.54,98.72,1,1,1539870502975
0,12,3,98.54,98.66,1,1,1539870502975
0,10,3,98.29,98.66,2,1,1539870502975
0,10,10,98.29,98.66,2,2,1539870502980
0,10,10,98.29,98.66,2,3,1539870502981
0,10,3,98.29,98.65,2,1,1539870502981
0,10,10,98.29,98.65,2,1,1539870502985
0,10,10,98.29,98.65,2,2,1539870502985
0,10,12,98.29,98.65,2,4,1539870502986
0,10,10,98.29,98.64,2,1,1539870502993
0,10,12,98.29,98.64,2,4,1539870502995
0,10,12,98.29,98.64,2,3,1539870502995
0,10,10,98.29,98.63,2,1,1539870503028
0,10,12,98.29,98.62,2,1,1539870503029
0,10,10,98.29,98.62,2,3,1539870503033
0,10,10,98.29,98.62,2,2,1539870503033
0,10,10,98.29,98.61,2,1,1539870503034
0,10,10,98.29,98.62,2,4,1539870503034
0,10,10,98.29,98.62,2,3,1539870503035
0,10,10,98.29,98.62,2,2,1539870503035
0,10,12,98.29,98.62,2,1,1539870503036
0,10,12,98.29,98.61,2,1,1539870503038
0,10,12,98.29,98.61,2,2,1539870503038
0,10,12,98.29,98.61,2,4,1539870503039
0,10,12,98.29,98.6,2,1,1539870503039
0,10,10,98.29,98.6,2,4,1539870503042
0,10,10,98.29,98.6,2,2,1539870503042
0,10,10,98.29,98.6,2,5,1539870503085
0,10,12,98.29,98.59,2,1,1539870503086
0,10,10,98.29,98.59,2,4,1539870503088
0,10,10,98.29,98.59,2,2,1539870503088
0,10,10,98.29,98.58,2,1,1539870503088
0,10,10,98.29,98.59,2,5,1539870503089
0,10,10,98.29,98.59,2,3,1539870503090
0,10,10,98.29,98.59,2,4,1539870503090
0,10,12,98.29,98.59,2,1,1539870503091
0,10,10,98.29,98.59,2,2,1539870503091
0,10,12,98.29,98.58,2,1,1539870503093
0,10,12,98.29,98.58,2,2,1539870503093
0,10,12,98.29,98.58,2,4,1539870503093
0,19,12,98.04,98.58,1,4,1539870503474
0,19,3,98.04,98.57,1,1,1539870503475
0,19,10,98.04,98.57,1,3,1539870503478
0,19,10,98.04,98.57,1,4,1539870503478
0,3,10,98.04,98.57,1,4,1539870503913
0,3,10,98.04,98.57,1,5,1539870504011
0,15,3,98.04,98.56,1,1,1539870504012
0,15,3,98.04,98.55,1,1,1539870504012
0,8,3,98,98.55,1,1,1539870504012
0,8,10,98,98.55,1,2,1539870504016
0,3,10,98,98.55,1,2,1539870504016
0,15,3,98,98.54,1,1,1539870504016
0,3,10,98,98.55,1,3,1539870504016
0,8,3,98,98.54,1,1,1539870504017
0,8,10,98,98.54,1,2,1539870504019
0,8,10,98,98.54,1,3,1539870504019
0,8,3,98,98.53,1,1,1539870504388
0,8,10,98,98.53,1,2,1539870504390
0,8,10,98,98.53,1,3,1539870504390
0,8,10,98,98.53,1,4,1539870504391
0,8,3,98,98.52,1,1,1539870504725
0,15,3,98,98.52,1,1,1539870504725
0,3,3,98,98.52,1,1,1539870504726
0,3,10,98,98.52,1,2,1539870504727
0,3,10,98,98.52,1,3,1539870504727
0,3,10,98,98.52,1,4,1539870504730
0,15,3,98,98.51,1,1,1539870504731
0,8,3,98,98.51,1,1,1539870504732
0,8,10,98,98.51,1,2,1539870504733
0,8,10,98,98.51,1,3,1539870504734
0,8,10,98,98.51,1,4,1539870504735
0,8,3,98,98.5,1,1,1539870504736
0,8,10,98,98.5,1,2,1539870504738
0,8,10,98,98.5,1,3,1539870504738
0,8,10,98,98.5,1,4,1539870504741
0,8,3,98,98.49,1,1,1539870504741
0,8,10,98,98.49,1,2,1539870504743
0,8,10,98,98.49,1,3,1539870504743
0,8,10,98,98.49,1,4,1539870504746
0,8,11,98,98.48,1,1,1539870505093
0,8,10,98,98.48,1,3,1539870505096
0,8,10,98,98.48,1,2,1539870505096
0,8,10,98,98.48,1,4,1539870505098
0,8,10,98,98.48,1,5,1539870505098
0,8,11,98,98.47,1,1,1539870505098
0,8,10,98,98.47,1,2,1539870505101
0,8,10,98,98.47,1,3,1539870505101
0,8,3,98,98.46,1,1,1539870505102
0,8,11,98,98.45,1,1,1539870505106
0,8,12,98,98.46,1,2,1539870505106
0,8,10,98,98.45,1,2,1539870505110
0,8,3,98,98.44,1,1,1539870505111
0,8,11,98,98.43,1,1,1539870505112
0,8,11,98,98.42,1,1,1539870505118
0,8,10,98,98.43,1,2,1539870505118
0,8,10,98,98.42,1,2,1539870505121
0,8,10,98,98.42,1,3,1539870505121
0,8,3,98,98.41,1,1,1539870505124
0,8,10,98,98.41,1,2,1539870505126
0,8,3,98,98.4,1,1,1539870505127
0,8,11,98,98.39,1,1,1539870505132
0,8,10,98,98.39,1,2,1539870505136
0,8,3,98,98.38,1,1,1539870505136
0,8,12,98,98.38,1,2,1539870505141
0,8,12,98,98.38,1,3,1539870505141
0,8,11,98,98.37,1,1,1539870505141
0,8,10,98,98.37,1,2,1539870505145
0,8,10,98,98.37,1,3,1539870505145
0,8,10,98,98.37,1,4,1539870505145
0,8,3,98,98.36,1,1,1539870505146
0,8,11,98,98.35,1,1,1539870505147
0,8,11,98,98.34,1,1,1539870505153
0,8,10,98,98.34,1,2,1539870505155
0,8,10,98,98.34,1,4,1539870505156
0,8,10,98,98.34,1,3,1539870505156
0,8,11,98,98.33,1,1,1539870505257
0,8,10,98,98.33,1,3,1539870505259
0,8,10,98,98.33,1,2,1539870505259
0,8,10,98,98.33,1,4,1539870505260
0,8,3,98,98.32,1,1,1539870505260
0,8,12,98,98.32,1,2,1539870505264
0,8,10,98,98.32,1,1,1539870505264
0,8,11,98,98.31,1,1,1539870505265
0,8,10,98,98.31,1,4,1539870505268
0,8,10,98,98.31,1,2,1539870505268
0,8,10,98,98.3,1,1,1539870505281
0,8,15,98,98.3,1,1,1539870505284
0,8,11,98,98.3,1,1,1539870505285
0,8,12,98,98.3,1,2,1539870505285
0,8,12,98,98.3,1,3,1539870505286
0,8,3,98,98.29,1,1,1539870509242
0,8,12,98,98.29,1,2,1539870509244
0,8,12,98,98.29,1,3,1539870509244
0,19,12,98.01,98.29,1,3,1539870509287
0,3,12,98.07,98.29,1,3,1539870509288
0,3,12,98.07,98.29,1,2,1539870509288
0,3,12,98.07,98.29,1,1,1539870509289
0,3,10,98.07,98.42,1,1,1539870509289
0,3,10,98.07,98.3,1,1,1539870509289
0,3,10,98.07,98.29,1,1,1539870509289
0,15,10,98.12,98.42,1,1,1539870509289
0,15,10,98.07,98.42,2,1,1539870509289
0,3,10,98.07,98.42,1,1,1539870509289
0,15,12,98.12,98.3,1,1,1539870509291
0,15,10,98.12,98.42,1,1,1539870509291
0,15,10,98.12,98.42,2,1,1539870509292
0,15,12,98.12,98.38,2,1,1539870509317
0,17,12,98.12,98.38,1,1,1539870509317
0,19,12,98.02,98.38,1,1,1539870509551
0,19,12,98.02,98.38,1,2,1539870509894
0,19,10,98.02,98.36,1,1,1539870510246
0,19,12,98.02,98.36,1,2,1539870513050
0,19,11,98.02,98.36,1,3,1539870514531
0,11,11,98.03,98.36,1,3,1539870515811
0,11,11,98.19,98.36,1,3,1539870518914
0,11,10,98.19,98.36,1,2,1539870520259
0,11,10,98.19,98.34,1,1,1539870520335
0,11,10,98.27,98.34,1,1,1539870525915
0,11,10,98.27,98.34,1,2,1539870525915
0,19,10,98.03,98.34,1,2,1539870525916
0,19,10,98.03,98.33,1,1,1539870526236
0,19,10,98.03,98.33,1,2,1539870526236
0,12,10,98.03,98.33,2,2,1539870526987
0,19,10,98.03,98.33,1,2,1539870527401
0,12,10,98.03,98.33,2,2,1539870527906
0,12,10,98.03,98.33,2,3,1539870528866
0,12,10,98.03,98.31,2,2,1539870538592
0,12,10,98.03,98.31,2,1,1539870538592
0,12,10,98.03,98.3,2,1,1539870538593
0,12,10,98.03,98.3,2,2,1539870538593
0,12,10,98.03,98.3,2,3,1539870541716
0,11,10,98.03,98.3,3,3,1539870543727
0,11,10,98.18,98.3,1,3,1539870547860
0,11,10,98.18,98.28,1,1,1539870548720
0,11,10,98.18,98.28,1,2,1539870548721
0,11,10,98.09,98.28,1,2,1539870548888
0,11,10,98.18,98.28,1,2,1539870550726
0,11,10,98.18,98.26,1,1,1539870555924
0,11,10,98.18,98.26,1,2,1539870555924
0,12,10,98.12,98.26,1,2,1539870557728
0,19,10,98.02,98.26,1,2,1539870557741
0,10,10,98.01,98.26,1,2,1539870557741
0,12,10,98.06,98.26,1,2,1539870557741
0,3,10,98.06,98.26,2,2,1539870557747
0,3,10,98.06,98.26,2,3,1539870558010
0,3,10,98.06,98.26,2,7,1539870558344
0,3,10,98.06,98.26,2,6,1539870559283
0,3,10,98.06,98.26,2,7,1539870564641
0,3,10,98.06,98.26,2,6,1539870566131
0,3,10,98.06,98.24,2,1,1539870567028
0,3,10,98.06,98.24,2,2,1539870567028
0,3,10,98.06,98.24,2,3,1539870567327
0,3,10,98.06,98.24,2,4,1539870567669
0,10,10,98.06,98.24,2,4,1539870568113
0,10,10,98.07,98.24,1,4,1539870572836
0,10,10,98.07,98.22,1,2,1539870577154
0,10,10,98.07,98.22,1,1,1539870577154
0,10,10,98.07,98.22,2,2,1539870578636
0,12,10,98.07,98.22,3,2,1539870580232
0,12,10,98.07,98.22,3,6,1539870580312
0,12,10,98.07,98.22,3,5,1539870580443
0,12,8,98.07,98.23,3,1,1539870581227
0,12,10,98.07,98.22,3,2,1539870581227
0,12,10,98.07,98.24,3,3,1539870581228
0,12,10,98.07,98.24,3,2,1539870581228
0,12,10,98.07,98.24,3,3,1539870581228
0,12,12,98.07,98.26,3,1,1539870581228
0,8,10,98.23,98.24,1,3,1539870581228
0,12,10,98.07,98.25,3,2,1539870581229
0,17,10,98.11,98.25,1,2,1539870581229
0,17,10,98.11,98.26,1,1,1539870581231
0,11,10,98.08,98.26,2,1,1539870581247
0,11,10,98.08,98.26,3,1,1539870581400
0,11,10,98.08,98.26,3,2,1539870581515
0,11,10,98.08,98.26,3,3,1539870581610
0,11,8,98.08,98.2,3,1,1539870581738
0,11,12,98.08,98.23,3,1,1539870583279
0,11,12,98.08,98.23,2,1,1539870584527
0,11,10,98.08,98.26,2,3,1539870585641
0,12,10,98.11,98.26,1,3,1539870585641
0,19,10,98.15,98.26,1,3,1539870585644
0,12,10,98.15,98.26,1,3,1539870585671
0,3,10,98.15,98.26,2,3,1539870585672
0,10,10,98.23,98.26,1,3,1539870586835
0,10,10,98.23,98.26,1,1,1539870586836
0,10,10,98.23,98.3,1,1,1539870586836
0,12,10,98.23,98.3,2,1,1539870586838
0,10,10,98.23,98.3,3,1,1539870587228
0,10,12,98.23,98.37,3,2,1539870587235
0,10,10,98.23,98.37,3,2,1539870589283
0,12,10,98.23,98.37,4,2,1539870590785
0,12,10,98.23,98.37,4,1,1539870592234
0,12,10,98.23,98.39,4,1,1539870592236
0,12,12,98.23,98.52,4,2,1539870592288
0,12,11,98.23,98.52,4,1,1539870593562
0,10,11,98.37,98.52,1,1,1539870593835
0,10,10,98.37,98.51,1,1,1539870593837
0,12,10,98.37,98.51,1,1,1539870593840
0,12,10,98.37,98.52,1,2,1539870594056
0,12,10,98.37,98.51,1,1,1539870594347
0,10,10,98.37,98.51,2,1,1539870594419
0,10,10,98.37,98.52,2,2,1539870594531
0,12,10,98.37,98.52,2,2,1539870597444
0,12,10,98.37,98.52,2,3,1539870598373
0,12,10,98.37,98.51,2,1,1539870598375
0,12,10,98.37,98.52,2,2,1539870598588
0,12,10,98.37,98.51,2,1,1539870598595
0,11,10,98.44,98.51,1,1,1539870599116
0,12,10,98.37,98.51,2,1,1539870599117
0,10,10,98.37,98.51,2,1,1539870599117
0,10,10,98.37,98.52,2,2,1539870599117
0,10,10,98.37,98.51,2,1,1539870599123
0,10,2,98.44,98.51,1,1,1539870600835
0,11,2,98.37,98.51,1,1,1539870600835
0,10,2,98.37,98.51,1,1,1539870601951
0,11,2,98.37,98.51,2,1,1539870602025
0,12,2,98.37,98.51,2,1,1539870602134
0,10,2,98.37,98.51,1,1,1539870602135
0,3,2,98.37,98.51,1,1,1539870602147
0,11,2,98.37,98.51,2,1,1539870603139
0,12,2,98.37,98.51,2,1,1539870603283
0,3,2,98.37,98.51,1,1,1539870603284
0,11,2,98.37,98.51,2,1,1539870604386
0,12,2,98.37,98.51,2,1,1539870604509
0,3,2,98.37,98.51,1,1,1539870604510
0,3,10,98.37,98.51,1,2,1539870605280
0,10,10,98.37,98.51,2,2,1539870605284
0,11,10,98.37,98.51,2,2,1539870605765
0,11,18,98.37,98.51,2,1,1539870605768
0,11,18,98.37,98.51,2,1,1539870606168
0,12,18,98.5,98.51,1,1,1539870606168
0,11,19,98.37,98.5,2,1,1539870606168
0,10,19,98.37,98.5,2,1,1539870606971
0,10,3,98.37,98.5,2,1,1539870606974
0,11,3,98.37,98.5,3,1,1539870607019
0,11,10,98.37,98.51,3,1,1539870608113
0,11,10,98.37,98.51,3,2,1539870610917
0,11,10,98.37,98.5,3,1,1539870610919
0,11,10,98.37,98.5,3,2,1539870610920
0,19,10,98.37,98.5,2,2,1539870610927
0,10,10,98.37,98.5,2,2,1539870610927
0,11,10,98.37,98.5,2,2,1539870610959
0,11,10,98.37,98.5,3,2,1539870613028
0,11,10,98.37,98.5,4,2,1539870613440
0,11,10,98.37,98.5,3,2,1539870614019
0,11,10,98.49,98.5,1,2,1539870614019
0,11,2,98.37,98.5,2,1,1539870614020
0,10,10,98.37,98.5,2,2,1539870614020
0,10,2,98.37,98.5,4,1,1539870614021
0,10,2,98.38,98.5,1,1,1539870614045
0,19,2,98.38,98.5,2,1,1539870615042
0,10,2,98.38,98.5,1,1,1539870615439
0,10,10,98.38,98.5,1,2,1539870632583
0,11,10,98.44,98.5,1,2,1539870641137
0,10,10,98.38,98.5,1,2,1539870641137
0,15,10,98.22,98.5,1,2,1539870641139
0,19,10,98.34,98.5,1,2,1539870641139
0,10,10,98.37,98.5,1,2,1539870641139
0,15,19,98.22,98.38,1,1,1539870641139
0,15,19,98.22,98.37,1,1,1539870641140
0,10,19,98.11,98.37,2,1,1539870641140
0,10,10,98.11,98.37,2,1,1539870641141
0,10,10,98.11,98.42,2,2,1539870641142
0,8,10,98.38,98.42,1,2,1539870641146
0,10,10,98.11,98.42,2,2,1539870641146
0,10,8,98.11,98.41,2,1,1539870641157
0,10,10,98.11,98.41,2,2,1539870641158
0,10,19,98.11,98.4,2,1,1539870641166
0,10,10,98.11,98.4,2,2,1539870641172
0,10,11,98.11,98.39,2,1,1539870641173
0,10,10,98.11,98.39,2,2,1539870641177
0,10,10,98.11,98.39,2,3,1539870641177
0,10,11,98.11,98.38,2,1,1539870641187
0,10,10,98.11,98.38,2,2,1539870641189
0,12,10,98.11,98.38,1,2,1539870641639
0,12,11,98.11,98.37,1,1,1539870641640
0,12,10,98.11,98.37,1,2,1539870641643
0,12,8,98.11,98.36,1,1,1539870642078
0,12,10,98.11,98.36,1,2,1539870642080
0,12,10,98.11,98.36,2,2,1539870642137
0,12,10,98.11,98.35,2,1,1539870642449
0,12,12,98.11,98.35,2,2,1539870642453
0,12,10,98.11,98.34,2,1,1539870642775
0,12,12,98.11,98.34,2,2,1539870642777
0,12,12,98.11,98.34,1,2,1539870645613
0,12,10,98.11,98.34,1,2,1539870645613
0,12,11,98.11,98.33,1,1,1539870645646
0,12,10,98.11,98.33,1,2,1539870645649
0,12,11,98.11,98.32,1,1,1539870645733
0,12,10,98.11,98.32,1,2,1539870645737
0,12,10,98.11,98.32,1,3,1539870646218
0,12,10,98.11,98.32,2,3,1539870646639
0,12,10,98.11,98.32,2,4,1539870648662
0,10,10,98.11,98.32,1,4,1539870656928
0,12,10,98.05,98.32,1,4,1539870656928
0,12,12,98.05,98.27,1,1,1539870656928
0,19,17,98.03,98.27,2,2,1539870656928
0,12,17,98.05,98.27,1,2,1539870656928
0,19,19,98.03,98.26,1,1,1539870656928
0,19,17,98.03,98.27,1,2,1539870656928
0,8,17,98.01,98.21,1,1,1539870656930
0,8,3,98.01,98.26,1,1,1539870656930
0,8,10,98.01,98.21,1,2,1539870656933
0,8,10,98.01,98.21,1,3,1539870656958
0,8,10,98.01,98.2,1,1,1539870656959
0,8,12,98.01,98.21,1,1,1539870656962
0,8,12,98.01,98.2,1,1,1539870656963
0,8,12,98.01,98.2,1,3,1539870656963
0,10,12,98.01,98.2,1,3,1539870656982
0,10,12,98.01,98.2,1,4,1539870657024
0,8,12,98.01,98.2,1,4,1539870657249
0,10,12,98.01,98.2,1,4,1539870659168
0,12,12,98.01,98.2,1,4,1539870661588
0,12,10,98.01,98.19,1,1,1539870661619
0,8,12,98.01,98.19,1,2,1539870661621
0,8,12,98.01,98.19,1,3,1539870661621
0,8,10,98.01,98.19,1,1,1539870661621
0,10,12,98.01,98.19,2,3,1539870661835
0,10,12,98.01,98.19,2,4,1539870662022
0,10,12,98.01,98.19,3,4,1539870662224
0,10,12,98.01,98.19,3,3,1539870663180
0,10,12,98.01,98.19,2,3,1539870668835
0,12,12,98.01,98.19,1,3,1539870669240
0,10,12,98.01,98.19,2,3,1539870671283
0,10,12,98.01,98.19,2,2,1539870672389
0,10,12,98.01,98.19,2,1,1539870672427
0,10,2,98.01,98.19,2,1,1539870672427
0,10,10,98.01,98.2,2,2,1539870672427
0,17,10,98.05,98.2,1,2,1539870672427
0,12,10,98.19,98.2,1,2,1539870672427
0,12,10,98.18,98.2,1,2,1539870672427
0,17,10,98.05,98.2,1,2,1539870672427
0,17,10,98.05,98.2,1,1,1539870672428
0,7,12,98.1,98.21,1,1,1539870672428
0,17,12,98.05,98.21,1,1,1539870672428
0,19,12,98.14,98.31,1,1,1539870672428
0,7,12,98.1,98.31,1,1,1539870672428
0,19,12,98.14,98.34,1,3,1539870672428
0,10,12,98.14,98.34,1,3,1539870672434
0,19,12,98.14,98.34,1,2,1539870672440
0,19,12,98.14,98.34,1,3,1539870672440
0,10,19,98.14,98.33,1,1,1539870672440
0,19,19,98.14,98.34,1,1,1539870672440
0,10,11,98.14,98.34,1,1,1539870672440
0,10,10,98.14,98.34,1,1,1539870672443
0,19,12,98.14,98.45,1,1,1539870672444
0,19,12,98.14,98.34,1,1,1539870672444
0,19,10,98.14,98.48,2,1,1539870672444
0,19,10,98.14,98.48,1,1,1539870672444
0,10,10,98.14,98.48,1,1,1539870672444
0,17,10,98.14,98.5,1,1,1539870672444
0,17,10,98.14,98.49,1,1,1539870672445
0,17,3,98.14,98.44,1,1,1539870672506
0,10,3,98.14,98.44,1,1,1539870672706
0,10,15,98.14,98.44,1,1,1539870672928
0,10,10,98.14,98.49,1,1,1539870672929
0,10,2,98.14,98.49,1,2,1539870672997
0,10,10,98.14,98.49,1,3,1539870673372
0,10,10,98.14,98.49,2,3,1539870675284
0,10,10,98.14,98.47,2,1,1539870675906
0,10,3,98.14,98.46,2,1,1539870675908
0,10,15,98.14,98.46,2,1,1539870675942
0,10,12,98.14,98.46,2,2,1539870675942
0,3,12,98.15,98.46,1,2,1539870675975
0,11,12,98.15,98.46,1,2,1539870675978
0,10,12,98.15,98.46,2,2,1539870675978
0,10,12,98.16,98.46,1,2,1539870676353
0,3,19,98.16,98.45,1,1,1539870676354
0,10,19,98.16,98.45,1,1,1539870676354
0,10,2,98.16,98.46,1,2,1539870676354
0,12,19,98.16,98.45,2,1,1539870676357
0,12,10,98.16,98.44,2,1,1539870676448
0,12,19,98.16,98.43,2,1,1539870676448
0,12,10,98.16,98.42,2,1,1539870676678
0,12,19,98.16,98.43,2,1,1539870676680
0,12,12,98.16,98.42,2,1,1539870676682
0,12,2,98.16,98.42,2,2,1539870676725
0,12,2,98.16,98.42,2,3,1539870676726
0,12,2,98.16,98.42,3,3,1539870677787
0,12,2,98.16,98.42,5,3,1539870691571
0,11,2,98.18,98.42,1,3,1539870695945
0,11,12,98.18,98.42,1,2,1539870695946
0,11,2,98.18,98.42,1,2,1539870695947
0,10,2,98.18,98.42,2,2,1539870695949
0,11,2,98.18,98.42,2,2,1539870701204
0,11,10,98.18,98.41,2,1,1539870701982
0,10,10,98.18,98.41,2,1,1539870702946
0,11,10,98.29,98.41,1,1,1539870702946
0,10,12,98.24,98.41,2,1,1539870702949
0,3,12,98.24,98.41,2,1,1539870702950
0,3,12,98.24,98.41,2,2,1539870703076
0,11,12,98.29,98.41,1,2,1539870704040
0,3,12,98.24,98.41,2,2,1539870704118
0,3,3,98.24,98.41,2,1,1539870705070
0,3,2,98.24,98.41,2,1,1539870710969
0,3,10,98.24,98.4,2,1,1539870713749
0,3,11,98.24,98.4,2,1,1539870714022
0,3,10,98.24,98.4,2,1,1539870715633
0,3,11,98.24,98.4,2,1,1539870716307
0,3,10,98.24,98.4,2,1,1539870716621
0,3,11,98.24,98.4,2,1,1539870716663
0,3,10,98.24,98.4,2,1,1539870717707
0,3,11,98.24,98.4,2,1,1539870718565
0,3,10,98.24,98.4,2,1,1539870729206
0,3,11,98.24,98.4,2,1,1539870729217
0,3,11,98.24,98.4,2,2,1539870729234
0,3,10,98.24,98.4,2,3,1539870729406
0,3,10,98.24,98.4,2,4,1539870729423
0,3,10,98.24,98.39,2,1,1539870740676
0,3,10,98.24,98.4,2,3,1539870742002
0,3,10,98.24,98.39,2,1,1539870742360
0,3,10,98.24,98.4,2,3,1539870742694
0,3,10,98.24,98.39,2,1,1539870742707
0,10,10,98.24,98.39,3,1,1539870742720
0,10,10,98.24,98.4,3,3,1539870742720
0,10,7,98.24,98.39,3,2,1539870742753
0,10,7,98.24,98.39,3,3,1539870742754
0,10,10,98.24,98.38,3,1,1539870745710
0,10,7,98.24,98.39,3,3,1539870745724
0,10,10,98.24,98.38,3,1,1539870745726
0,10,12,98.24,98.38,3,1,1539870746051
0,10,11,98.24,98.38,3,1,1539870746052
0,10,12,98.24,98.38,3,1,1539870746155
0,10,10,98.24,98.38,3,1,1539870746156
0,10,11,98.24,98.38,3,1,1539870746390
0,10,12,98.24,98.38,3,1,1539870748341
0,10,12,98.24,98.38,4,1,1539870748344
0,10,11,98.24,98.38,4,1,1539870748346
0,10,10,98.24,98.38,4,1,1539870749716
0,10,11,98.31,98.38,1,1,1539870749726
0,8,11,98.31,98.38,2,1,1539870749728
0,8,10,98.31,98.38,2,1,1539870749914
0,8,10,98.31,98.39,2,1,1539870750817
0,12,10,98.32,98.39,1,1,1539870751703
0,12,10,98.32,98.39,2,1,1539870751749
0,12,10,98.32,98.39,3,1,1539870752061
0,12,10,98.32,98.39,2,1,1539870752162
0,12,10,98.32,98.4,2,3,1539870752461
0,12,19,98.32,98.45,3,1,1539870753274
0,12,12,98.32,98.45,2,1,1539870753274
0,12,12,98.32,98.45,3,1,1539870753275
0,12,19,98.32,98.45,2,1,1539870755055
0,11,19,98.36,98.45,1,1,1539870755420
0,11,12,98.36,98.46,1,1,1539870755813
0,10,12,98.36,98.46,2,1,1539870755846
0,10,12,98.36,98.46,3,1,1539870756756
0,10,10,98.36,98.42,3,1,1539870758514
0,10,2,98.36,98.42,3,2,1539870764993
0,10,10,98.36,98.42,3,2,1539870766253
0,10,12,98.36,98.46,3,1,1539870766253
0,19,10,98.39,98.48,1,1,1539870766276
0,10,10,98.36,98.48,3,1,1539870766276
0,8,10,98.39,98.48,1,1,1539870766361
0,12,10,98.39,98.48,2,1,1539870766614
0,8,10,98.39,98.48,1,1,1539870766914
0,8,10,98.39,98.48,1,2,1539870767767
0,11,10,98.46,98.48,1,2,1539870769341
0,8,10,98.39,98.48,1,2,1539870769341
0,10,10,98.46,98.48,1,2,1539870769342
0,8,10,98.39,98.46,1,1,1539870769342
0,8,10,98.39,98.48,1,2,1539870769342
0,8,10,98.39,98.48,1,2,1539870769342
0,12,10,98.39,98.48,1,2,1539870769343
0,10,10,98.4,98.48,2,2,1539870769343
0,12,10,98.39,98.48,1,2,1539870769346
0,11,10,98.39,98.48,2,2,1539870769701
0,10,10,98.46,98.48,1,2,1539870770720
0,11,10,98.39,98.48,2,2,1539870770721
0,11,10,98.39,98.46,2,1,1539870770721
0,10,10,98.4,98.46,2,1,1539870770722
0,11,10,98.39,98.46,2,1,1539870770724
0,11,10,98.39,98.48,2,2,1539870770874
0,11,2,98.39,98.48,2,1,1539870771212
0,11,10,98.39,98.49,2,3,1539870772356
0,11,10,98.39,98.49,3,3,1539870772405
0,12,10,98.39,98.49,2,3,1539870772726
0,11,10,98.39,98.49,2,3,1539870772727
0,11,10,98.39,98.49,3,3,1539870774083
0,11,10,98.39,98.49,4,3,1539870774399
0,11,10,98.39,98.49,3,3,1539870774661
0,11,10,98.39,98.49,3,2,1539870775105
0,11,10,98.39,98.49,4,2,1539870776164
0,11,10,98.39,98.5,4,1,1539870776311
0,11,2,98.39,98.49,4,1,1539870776311
0,19,12,98.41,98.55,1,1,1539870776311
0,11,12,98.39,98.55,4,1,1539870776311
0,11,10,98.39,98.57,4,1,1539870776311
0,19,10,98.41,98.57,1,1,1539870776311
0,11,12,98.39,98.57,4,1,1539870776312
0,11,19,98.39,98.56,4,1,1539870776318
0,11,19,98.39,98.55,4,1,1539870776341
0,11,10,98.39,98.57,4,1,1539870776366
0,10,10,98.39,98.57,3,1,1539870776385
0,11,10,98.49,98.57,1,1,1539870776701
0,11,19,98.49,98.57,1,1,1539870776702
0,11,19,98.49,98.57,2,1,1539870776703
0,11,10,98.49,98.57,2,1,1539870776707
0,11,10,98.49,98.57,3,1,1539870776956
0,11,10,98.49,98.57,4,1,1539870777694
0,11,12,98.49,98.58,4,2,1539870777695
0,11,12,98.49,98.58,4,1,1539870777740
0,11,12,98.49,98.58,3,1,1539870778018
0,11,12,98.49,98.58,4,1,1539870779049
0,11,11,98.49,98.63,4,1,1539870779051
0,11,12,98.49,98.63,4,2,1539870779051
0,11,12,98.49,98.63,4,1,1539870779216
0,11,12,98.49,98.63,3,1,1539870779282
0,11,12,98.49,98.62,3,1,1539870779283
0,11,12,98.49,98.62,4,1,1539870780295
0,11,12,98.49,98.62,3,1,1539870780619
0,11,12,98.58,98.62,1,1,1539870781083
0,11,12,98.58,98.67,1,1,1539870781084
0,11,12,98.58,98.68,1,2,1539870781084
0,11,11,98.58,98.68,1,1,1539870781084
0,11,12,98.58,98.68,2,1,1539870781085
0,11,11,98.58,98.68,2,1,1539870781465
0,11,10,98.58,98.71,2,1,1539870781583
0,11,12,98.58,98.68,2,1,1539870781583
0,12,10,98.59,98.71,1,1,1539870781583
0,12,10,98.59,98.71,2,1,1539870781627
0,12,10,98.59,98.71,1,1,1539870781661
0,12,10,98.59,98.71,1,2,1539870782013
0,12,10,98.59,98.7,1,1,1539870782283
0,12,10,98.59,98.71,1,2,1539870782297
0,10,10,98.59,98.71,1,2,1539870782343
0,2,10,98.59,98.71,1,1,1539870782929
0,2,12,98.59,98.77,1,1,1539870783712
0,2,12,98.59,98.71,1,1,1539870783712
0,19,12,98.6,98.77,1,1,1539870783716
0,12,12,98.6,98.77,1,1,1539870783742
0,10,12,98.6,98.77,1,1,1539870783933
0,10,12,98.6,98.77,1,1,1539870785665
0,10,19,98.6,98.77,1,1,1539870785665
0,10,19,98.6,98.77,1,1,1539870785962
0,10,12,98.6,98.77,1,1,1539870786989
0,10,19,98.6,98.77,1,1,1539870786990
0,10,12,98.6,98.77,1,1,1539870787115
0,10,19,98.6,98.77,1,1,1539870787116
0,2,19,98.6,98.77,1,1,1539870787461
0,11,19,98.7,98.77,1,1,1539870788084
0,2,19,98.6,98.77,1,1,1539870788085
0,10,19,98.67,98.77,1,1,1539870788086
0,8,19,98.67,98.77,1,1,1539870788088
0,10,19,98.67,98.77,2,1,1539870796510
0,11,19,98.67,98.77,2,1,1539870803519
0,11,19,98.67,98.77,3,1,1539870807448
0,11,10,98.67,98.77,3,1,1539870807449
0,11,19,98.67,98.77,3,1,1539870807488
0,12,19,98.67,98.77,2,1,1539870807578
0,12,10,98.67,98.77,2,1,1539870807579
0,11,10,98.67,98.77,2,1,1539870807580
0,11,10,98.72,98.77,1,1,1539870809159
0,8,10,98.67,98.77,1,1,1539870809161
0,10,19,98.69,98.77,2,1,1539870809163
0,10,19,98.68,98.77,2,1,1539870809166
0,10,19,98.67,98.77,3,1,1539870809168
0,10,10,98.67,98.77,3,2,1539870811647
0,10,10,98.67,98.77,2,2,1539870813551
0,10,12,98.67,98.77,2,2,1539870816024
0,8,12,98.67,98.77,1,2,1539870816024
0,8,10,98.67,98.77,1,2,1539870816025
0,12,12,98.67,98.77,1,2,1539870816025
0,8,19,98.67,98.75,1,1,1539870816025
0,2,12,98.66,98.68,1,1,1539870816025
0,8,12,98.67,98.68,1,1,1539870816025
0,10,12,98.59,98.67,1,1,1539870816025
0,10,12,98.59,98.68,1,1,1539870816025
0,10,2,98.59,98.66,1,1,1539870816026
0,10,2,98.59,98.66,1,2,1539870816026
0,10,2,98.59,98.66,1,3,1539870816040
0,11,2,98.58,98.66,1,3,1539870816072
0,12,2,98.57,98.66,1,3,1539870816072
0,12,2,98.57,98.66,1,2,1539870816262
0,12,2,98.57,98.66,1,1,1539870816309
0,19,2,98.56,98.66,1,1,1539870817540
0,19,12,98.56,98.57,1,1,1539870817540
0,19,12,98.55,98.57,1,1,1539870817540
0,19,19,98.55,98.56,1,1,1539870817540
0,11,19,98.49,98.56,1,1,1539870817540
0,10,19,98.45,98.56,1,1,1539870817541
0,12,19,98.49,98.56,1,1,1539870817541
0,10,10,98.45,98.62,1,2,1539870817542
0,10,10,98.45,98.62,1,2,1539870817561
0,10,10,98.56,98.62,1,2,1539870817561
0,12,10,98.45,98.62,1,3,1539870821470
0,10,10,98.45,98.62,2,3,1539870823457
0,12,10,98.45,98.62,1,3,1539870823541
0,12,10,98.45,98.61,1,1,1539870825267
0,12,11,98.45,98.61,1,1,1539870825269
0,10,11,98.45,98.61,1,1,1539870825270
0,10,12,98.45,98.61,1,2,1539870825271
0,12,12,98.45,98.61,2,2,1539870826249
0,8,12,98.48,98.61,1,2,1539870827114
0,11,12,98.48,98.61,2,2,1539870829737
0,11,12,98.48,98.61,3,2,1539870829945
0,11,8,98.48,98.58,3,2,1539870830052
0,11,8,98.48,98.58,2,2,1539870830057
0,11,10,98.48,98.57,2,1,1539870830960
0,11,10,98.48,98.57,2,2,1539870830961
0,11,10,98.48,98.57,2,1,1539870830962
0,11,10,98.48,98.57,3,1,1539870831089
0,11,10,98.48,98.57,3,2,1539870831786
0,12,10,98.48,98.57,4,2,1539870832060
0,12,10,98.48,98.57,5,2,1539870832098
0,12,10,98.48,98.57,5,1,1539870832673
0,12,8,98.48,98.58,5,2,1539870832673
0,12,8,98.48,98.58,5,1,1539870832673
0,12,12,98.48,98.58,5,1,1539870832673
0,17,8,98.5,98.58,1,2,1539870832673
0,17,8,98.5,98.58,1,1,1539870832673
0,17,8,98.5,98.58,1,1,1539870832674
0,17,8,98.5,98.58,1,2,1539870832674
0,17,8,98.5,98.58,1,1,1539870832674
0,17,10,98.5,98.59,1,1,1539870832675
0,17,10,98.5,98.6,1,1,1539870832675
0,17,11,98.5,98.61,1,1,1539870832678
0,12,11,98.5,98.61,1,1,1539870832704
0,11,11,98.5,98.61,1,1,1539870832883
0,11,12,98.5,98.59,1,1,1539870835826
0,12,12,98.5,98.59,1,1,1539870837218
0,11,1,98.5,98.6,1,1,1539870837345
0,11,1,98.5,98.6,1,1,1539870837345
0,19,1,98.52,98.6,1,1,1539870837345
0,11,12,98.5,98.58,1,1,1539870839129
0,11,10,98.5,98.6,1,2,1539870840587
0,19,10,98.52,98.6,1,2,1539870840587
0,11,10,98.5,98.6,1,2,1539870840588
0,11,3,98.5,98.6,1,1,1539870840604
0,11,15,98.5,98.59,1,1,1539870840606
0,12,15,98.5,98.59,1,1,1539870842138
0,12,12,98.45,98.51,1,1,1539870843099
0,12,15,98.45,98.59,1,1,1539870843099
0,12,12,98.45,98.5,1,1,1539870843099
0,12,15,98.45,98.59,1,1,1539870843100
0,12,15,98.45,98.59,2,1,1539870843100
0,12,10,98.45,98.56,2,1,1539870843100
0,12,15,98.45,98.59,2,1,1539870843117
0,12,12,98.45,98.58,2,1,1539870843118
0,12,12,98.45,98.58,3,1,1539870843212
0,12,12,98.45,98.58,3,2,1539870843467
0,12,12,98.45,98.58,1,2,1539870844221
0,12,12,98.45,98.58,2,2,1539870844221
0,12,12,98.45,98.56,1,1,1539870844715
0,12,19,98.45,98.55,1,1,1539870846199
0,12,19,98.4,98.55,1,1,1539870846494
0,12,12,98.4,98.45,1,1,1539870846494
0,12,12,98.38,98.45,1,1,1539870846495
0,12,19,98.38,98.53,1,1,1539870846496
0,12,12,98.38,98.53,1,1,1539870846496
0,12,10,98.38,98.48,1,1,1539870846498
0,12,10,98.38,98.47,1,1,1539870846500
0,12,12,98.38,98.53,1,1,1539870846505
0,12,10,98.38,98.49,1,1,1539870846508
0,12,10,98.38,98.48,1,1,1539870846510
0,12,12,98.38,98.53,1,1,1539870846514
0,12,12,98.38,98.49,1,1,1539870846520
0,12,12,98.38,98.53,1,1,1539870846521
0,12,10,98.38,98.49,1,1,1539870846533
0,12,10,98.38,98.49,1,2,1539870846534
0,12,12,98.37,98.38,1,1,1539870848311
0,12,10,98.37,98.49,1,2,1539870848311
0,8,12,98.35,98.38,1,1,1539870848311
0,12,12,98.31,98.38,1,1,1539870848311
0,12,8,98.31,98.35,1,1,1539870848312
0,12,8,98.24,98.35,1,1,1539870848312
0,19,8,98.18,98.35,1,1,1539870848312
0,19,19,98.18,98.36,1,1,1539870848313
0,10,19,98.18,98.36,1,2,1539870848333
0,10,10,98.18,98.36,1,1,1539870848344
0,19,19,98.18,98.36,1,1,1539870848349
0,19,10,98.18,98.36,1,2,1539870848450
0,19,10,98.18,98.36,1,3,1539870849728
0,19,10,98.18,98.36,1,4,1539870850415
0,19,10,98.18,98.35,1,1,1539870850415
0,10,10,98.18,98.36,1,4,1539870850415
0,11,10,98.18,98.35,3,1,1539870850416
0,11,10,98.18,98.35,4,1,1539870850417
0,11,10,98.18,98.35,4,3,1539870852609
0,11,10,98.18,98.35,4,4,1539870852971
0,12,10,98.18,98.35,4,4,1539870855712
0,12,11,98.18,98.32,4,1,1539870857130
0,12,11,98.18,98.32,4,2,1539870857131
0,11,11,98.18,98.32,4,2,1539870857132
0,11,11,98.18,98.32,5,2,1539870858442
0,11,8,98.18,98.3,5,1,1539870862867
0,11,8,98.26,98.3,1,1,1539870865441
0,12,8,98.18,98.3,4,1,1539870865442
0,10,8,98.22,98.3,1,1,1539870865445
0,10,8,98.2,98.3,1,1,1539870865447
0,10,8,98.19,98.3,1,1,1539870865449
0,12,8,98.18,98.3,4,1,1539870865452
0,12,12,98.18,98.3,4,4,1539870866734
0,12,19,98.18,98.3,3,4,1539870869835
0,10,19,98.18,98.3,1,4,1539870870398
0,8,19,98.15,98.3,1,4,1539870870398
0,12,19,98.18,98.3,4,4,1539870870398
0,8,19,98.15,98.3,1,4,1539870870398
0,8,12,98.15,98.27,1,1,1539870870398
0,12,12,98.18,98.27,4,1,1539870870398
0,8,12,98.15,98.27,1,1,1539870870399
0,12,12,98.18,98.27,4,1,1539870870399
0,12,12,98.18,98.27,3,1,1539870870399
0,12,12,98.18,98.27,1,1,1539870870399
0,12,19,98.18,98.25,1,1,1539870870401
0,12,12,98.18,98.27,1,1,1539870870401
0,12,10,98.18,98.27,1,1,1539870870459
0,12,10,98.18,98.27,1,2,1539870870468
0,12,10,98.18,98.27,1,1,1539870870476
0,12,10,98.18,98.27,1,2,1539870870510
0,8,10,98.15,98.27,1,2,1539870870538
0,12,10,98.18,98.27,4,2,1539870870538
0,12,10,98.18,98.25,4,1,1539870870538
0,12,10,98.18,98.25,3,1,1539870870538
0,8,10,98.15,98.25,1,1,1539870870538
0,12,10,98.18,98.25,4,1,1539870870538
0,12,10,98.18,98.25,3,1,1539870870538
0,12,10,98.18,98.25,2,1,1539870870538
0,8,10,98.15,98.25,1,1,1539870870538
0,8,19,98.15,98.25,1,2,1539870870538
0,8,10,98.15,98.24,1,1,1539870870539
0,8,19,98.15,98.25,1,2,1539870870540
0,8,10,98.15,98.26,1,1,1539870870545
0,8,19,98.15,98.25,1,1,1539870870545
0,8,10,98.15,98.26,1,2,1539870870546
0,8,12,98.15,98.27,1,3,1539870870556
0,8,10,98.15,98.27,1,1,1539870870724
0,8,12,98.15,98.27,1,2,1539870870724
0,8,19,98.15,98.29,1,1,1539870870746
0,8,8,98.15,98.29,1,1,1539870870899
0,8,12,98.15,98.28,1,1,1539870874567
0,8,10,98.15,98.27,1,1,1539870874571
0,8,10,98.15,98.26,1,1,1539870874577
0,8,12,98.15,98.26,1,1,1539870874584
0,8,10,98.15,98.25,1,1,1539870874584
0,8,10,98.15,98.24,1,1,1539870874873
0,8,10,98.15,98.25,1,2,1539870874873
0,8,10,98.15,98.25,1,1,1539870875227
0,8,10,98.15,98.25,1,3,1539870875620
0,8,10,98.15,98.25,1,4,1539870875654
0,19,10,98.15,98.25,2,4,1539870875724
0,10,10,98.16,98.25,1,4,1539870875942
0,10,8,98.16,98.27,1,1,1539870876337
0,10,12,98.16,98.26,1,1,1539870876337
0,10,8,98.16,98.27,1,1,1539870876337
0,12,8,98.24,98.27,1,1,1539870876337
0,19,8,98.26,98.27,1,1,1539870876337
0,19,12,98.26,98.31,1,1,1539870876337
0,19,12,98.27,98.31,1,1,1539870876337
0,12,11,98.3,98.36,1,1,1539870876338
0,12,12,98.3,98.31,1,1,1539870876338
0,10,11,98.16,98.36,1,1,1539870876340
0,15,11,98.16,98.36,1,1,1539870876353
0,19,11,98.15,98.36,2,1,1539870876353
0,19,19,98.15,98.42,2,2,1539870876357
0,17,19,98.2,98.42,1,2,1539870876358
0,17,19,98.21,98.42,1,2,1539870876358
0,17,12,98.21,98.43,1,1,1539870876370
0,17,19,98.21,98.42,1,1,1539870876370
0,19,12,98.42,98.43,1,1,1539870876370
0,8,12,98.28,98.43,1,1,1539870876371
0,19,12,98.25,98.43,1,1,1539870876371
0,19,10,98.25,98.44,1,1,1539870876371
0,12,19,98.43,98.44,1,1,1539870876371
0,12,10,98.43,98.44,1,1,1539870876371
0,12,12,98.43,98.44,1,1,1539870876371
0,17,10,98.32,98.44,1,1,1539870876371
0,17,12,98.32,98.44,1,1,1539870876371
0,17,19,98.32,98.55,1,1,1539870876372
0,17,19,98.34,98.55,1,1,1539870876372
0,17,12,98.34,98.44,1,1,1539870876372
0,17,19,98.34,98.55,1,1,1539870876372
0,19,19,98.36,98.55,1,1,1539870876372
0,17,19,98.34,98.55,1,1,1539870876372
0,17,10,98.34,98.6,1,1,1539870876382
0,19,10,98.41,98.6,1,1,1539870876383
0,19,10,98.43,98.6,1,1,1539870876383
0,19,10,98.43,98.6,1,2,1539870876384
0,19,10,98.43,98.6,1,1,1539870876396
0,19,3,98.41,98.66,1,1,1539870876396
0,19,10,98.41,98.6,1,1,1539870876396
0,19,19,98.41,98.66,1,1,1539870876396
0,3,19,98.42,98.66,1,1,1539870876396
0,3,15,98.42,98.61,1,1,1539870876396
0,3,15,98.42,98.6,1,1,1539870876396
0,3,19,98.42,98.66,1,1,1539870876397
0,3,19,98.42,98.67,1,1,1539870876408
0,17,19,98.48,98.67,1,1,1539870876408
0,19,19,98.54,98.67,1,1,1539870876408
0,17,19,98.48,98.66,1,1,1539870876408
0,17,19,98.48,98.67,1,1,1539870876411
0,17,12,98.48,98.77,1,1,1539870876425
0,8,12,98.54,98.77,1,1,1539870876425
0,19,12,98.55,98.77,1,1,1539870876425
0,3,12,98.42,98.77,1,1,1539870876455
0,19,12,98.42,98.77,2,1,1539870877373
0,3,12,98.42,98.77,1,1,1539870877516
0,19,12,98.42,98.77,2,1,1539870878560
0,3,12,98.42,98.77,1,1,1539870878873
0,3,10,98.42,98.76,1,1,1539870879558
0,3,10,98.42,98.75,1,1,1539870879559
0,12,10,98.42,98.75,1,1,1539870879656
0,12,10,98.42,98.76,1,1,1539870879861
0,12,2,98.42,98.76,1,1,1539870880043
0,12,19,98.42,98.75,1,1,1539870880044
0,3,19,98.43,98.75,1,1,1539870880663
0,3,19,98.44,98.75,1,1,1539870880893
0,19,19,98.44,98.75,2,1,1539870882756
0,3,19,98.44,98.75,1,1,1539870882855
0,19,19,98.44,98.75,2,1,1539870885514
0,3,19,98.44,98.75,1,1,1539870885712
0,3,10,98.44,98.75,1,2,1539870886354
0,15,10,98.44,98.75,1,3,1539870886686
0,3,10,98.44,98.75,1,3,1539870886686
0,2,10,98.44,98.75,1,3,1539870886687
0,2,10,98.44,98.75,1,2,1539870887262
0,3,12,98.44,98.74,1,1,1539870887263
0,2,12,98.44,98.74,1,1,1539870887263
0,3,12,98.44,98.74,1,1,1539870888163
0,7,12,98.59,98.74,1,1,1539870888163
0,3,10,98.44,98.74,1,1,1539870888164
0,3,10,98.44,98.74,1,2,1539870888705
0,12,10,98.44,98.74,2,2,1539870889985
0,3,10,98.45,98.74,1,2,1539870891212
0,3,12,98.45,98.73,1,1,1539870891213
0,3,10,98.45,98.73,1,1,1539870891269
0,10,12,98.45,98.73,2,1,1539870891292
0,10,10,98.45,98.73,2,2,1539870891522
0,10,10,98.59,98.73,1,2,1539870894262
0,11,12,98.59,98.73,1,1,1539870895223
0,11,10,98.59,98.73,1,1,1539870895283
0,10,10,98.59,98.73,1,1,1539870900976
0,10,12,98.59,98.73,1,2,1539870903355
0,19,12,98.59,98.73,2,2,1539870903361
0,10,12,98.59,98.73,1,2,1539870903362
0,10,12,98.59,98.73,2,2,1539870904522
0,11,12,98.59,98.73,3,2,1539870907139
0,10,12,98.59,98.73,2,2,1539870912372
0,11,12,98.66,98.73,1,2,1539870912372
0,10,12,98.6,98.73,1,2,1539870912374
0,11,12,98.59,98.73,2,2,1539870912377
0,11,10,98.59,98.73,2,1,1539870913477
0,11,10,98.66,98.73,1,1,1539870914062
0,10,10,98.59,98.73,2,1,1539870914063
0,10,12,98.6,98.73,1,1,1539870914065
0,12,12,98.59,98.73,2,1,1539870914067
0,10,12,98.66,98.73,1,1,1539870915262
0,12,12,98.59,98.73,2,1,1539870915262
0,10,12,98.6,98.73,1,1,1539870915263
0,12,12,98.59,98.73,2,1,1539870915266
0,12,12,98.59,98.73,2,2,1539870920646
0,12,10,98.59,98.73,2,1,1539870923850
0,12,12,98.59,98.73,2,2,1539870935145
0,12,12,98.59,98.73,2,3,1539870935775
0,11,12,98.59,98.73,3,3,1539870936968
0,11,12,98.59,98.73,4,3,1539870937812
0,12,12,98.59,98.73,3,3,1539870937937
0,11,12,98.59,98.73,3,3,1539870937938
0,11,12,98.59,98.73,4,3,1539870938934
0,12,12,98.59,98.73,3,3,1539870939298
0,11,12,98.59,98.73,3,3,1539870939299
0,11,12,98.59,98.73,4,3,1539870940306
0,11,12,98.59,98.73,4,1,1539870940323
0,11,10,98.59,98.74,4,2,1539870940323
0,11,12,98.59,98.73,4,2,1539870940323
0,11,10,98.59,98.75,4,2,1539870940324
0,11,10,98.59,98.74,4,1,1539870940324
0,11,10,98.59,98.75,4,1,1539870940324
0,3,10,98.66,98.75,1,1,1539870940324
0,3,10,98.62,98.75,1,1,1539870940324
0,3,15,98.66,98.88,1,1,1539870940324
0,3,19,98.66,98.88,1,1,1539870940325
0,3,10,98.66,98.88,1,1,1539870940325
0,12,10,98.66,98.88,1,1,1539870940325
0,12,10,98.62,98.88,2,1,1539870940325
0,12,19,98.62,98.88,2,1,1539870940327
0,12,15,98.62,98.88,2,1,1539870940336
0,17,15,98.68,98.88,1,1,1539870940337
0,17,15,98.69,98.88,1,1,1539870940337
0,17,10,98.69,98.88,1,1,1539870940337
0,17,12,98.69,98.84,1,1,1539870940337
0,10,12,98.68,98.84,1,1,1539870940367
0,3,12,98.68,98.84,1,1,1539870940627
0,10,12,98.68,98.84,2,1,1539870941283
0,10,2,98.68,98.84,2,1,1539870941371
0,10,10,98.68,98.84,2,1,1539870941973
0,12,12,98.68,98.84,2,1,1539870942019
0,12,2,98.68,98.84,3,1,1539870942727
0,10,2,98.68,98.84,2,1,1539870942918
0,11,2,98.83,98.84,1,1,1539870943757
0,10,2,98.68,98.84,2,1,1539870943757
0,10,11,98.68,98.83,2,1,1539870943757
0,10,11,98.75,98.83,1,1,1539870943759
0,8,11,98.75,98.83,1,1,1539870943761
0,8,19,98.75,98.83,1,1,1539870943790
0,8,12,98.75,98.84,1,1,1539870944291
0,8,10,98.75,98.84,1,1,1539870944430
0,10,10,98.75,98.84,1,1,1539870946612
0,11,12,98.75,98.84,1,1,1539870946620
0,11,10,98.75,98.84,1,1,1539870946985
0,11,10,98.75,98.84,2,1,1539870947809
0,8,10,98.75,98.84,1,1,1539870947938
0,8,10,98.75,98.84,1,2,1539870947990
0,11,10,98.75,98.84,2,2,1539870949343
0,8,10,98.75,98.84,1,2,1539870949444
0,11,10,98.75,98.84,2,2,1539870950452
0,11,10,98.75,98.84,2,1,1539870950472
0,12,10,98.75,98.84,2,1,1539870951035
0,8,10,98.75,98.84,1,1,1539870951036
0,8,10,98.75,98.84,1,2,1539870951685
0,8,10,98.75,98.84,1,3,1539870951770
0,17,10,98.75,98.84,1,3,1539870952132
0,12,10,98.75,98.84,1,3,1539870952132
0,8,12,98.75,98.76,1,1,1539870952132
0,8,10,98.75,98.84,1,3,1539870952132
0,12,12,98.66,98.76,1,1,1539870952132
0,8,12,98.66,98.76,1,1,1539870952132
0,8,12,98.66,98.76,1,2,1539870952132
0,3,12,98.66,98.76,1,2,1539870952132
0,3,10,98.66,98.84,1,3,1539870952132
0,3,12,98.66,98.76,1,1,1539870952132
0,8,10,98.66,98.84,1,3,1539870952133
0,12,10,98.66,98.84,2,3,1539870952522
0,8,11,98.66,98.74,1,1,1539870953166
0,8,10,98.66,98.84,1,3,1539870953166
0,8,11,98.66,98.72,1,1,1539870953177
0,12,11,98.66,98.72,1,1,1539870953301
0,10,11,98.66,98.72,1,1,1539870953312
0,11,11,98.64,98.72,2,1,1539870953312
0,11,11,98.64,98.7,2,1,1539870953312
0,11,10,98.64,98.84,2,3,1539870953314
0,11,10,98.64,98.83,2,1,1539870953314
0,11,10,98.64,98.84,2,3,1539870953352
0,10,10,98.64,98.84,1,3,1539870953976
0,3,10,98.64,98.84,1,3,1539870954296
0,3,10,98.64,98.83,1,1,1539870954626
0,10,10,98.64,98.83,1,1,1539870957616
0,10,2,98.64,98.83,1,2,1539870958325
0,12,2,98.64,98.83,1,2,1539870961863
0,12,10,98.64,98.82,1,1,1539870962913
0,12,10,98.64,98.82,1,2,1539870962915
0,10,10,98.64,98.82,1,2,1539870962915
0,12,10,98.64,98.82,1,3,1539870964070
0,10,10,98.64,98.82,1,3,1539870964562
0,12,12,98.64,98.82,1,3,1539870965839
0,10,12,98.64,98.82,1,4,1539870967324
0,10,12,98.64,98.82,2,4,1539870968033
0,10,12,98.64,98.82,3,4,1539870970369
0,12,12,98.64,98.82,2,4,1539870974961
0,10,12,98.73,98.82,1,4,1539870977346
0,10,12,98.7,98.82,1,4,1539870978169
0,12,12,98.64,98.82,1,4,1539870978281
0,15,12,98.63,98.82,1,4,1539870978282
0,15,12,98.63,98.82,1,4,1539870978283
0,12,12,98.7,98.82,1,4,1539870978283
0,15,12,98.63,98.79,1,1,1539870978283
0,15,10,98.63,98.79,1,2,1539870978286
0,15,10,98.63,98.75,1,1,1539870978312
0,15,10,98.63,98.75,1,2,1539870978313
0,15,10,98.63,98.75,1,3,1539870978330
0,12,10,98.63,98.75,1,3,1539870979992
0,10,10,98.62,98.75,1,3,1539870988427
0,8,10,98.61,98.75,1,3,1539870988427
0,10,10,98.61,98.75,1,3,1539870988805
0,8,10,98.61,98.75,2,3,1539870998748
0,10,10,98.61,98.75,3,3,1539870999970
0,8,12,98.61,98.75,2,3,1539871005748
0,10,12,98.61,98.75,2,3,1539871005834
0,8,12,98.61,98.75,1,3,1539871006970
0,10,12,98.61,98.75,1,3,1539871009733
0,8,12,98.61,98.75,1,3,1539871009982
0,8,10,98.61,98.75,1,4,1539871010398
0,8,12,98.61,98.75,1,4,1539871014734
0,10,12,98.61,98.75,3,4,1539871016994
0,10,12,98.61,98.75,3,3,1539871023595
0,10,12,98.61,98.75,3,2,1539871025414
0,10,19,98.61,98.75,3,1,1539871025414
0,10,10,98.61,98.75,3,1,1539871025414
0,17,10,98.64,98.79,1,2,1539871025414
0,10,10,98.61,98.79,3,2,1539871025414
0,12,10,98.74,98.79,1,2,1539871025414
0,19,10,98.75,98.79,1,2,1539871025415
0,19,12,98.75,98.79,1,1,1539871025415
0,19,12,98.75,98.82,1,1,1539871025415
0,12,12,98.74,98.82,1,1,1539871025415
0,17,12,98.65,98.82,1,1,1539871025416
0,12,12,98.68,98.82,1,1,1539871025416
0,3,12,98.67,98.82,1,1,1539871025418
0,10,12,98.75,98.82,1,1,1539871025420
0,12,12,98.75,98.82,1,1,1539871026418
0,19,12,98.75,98.82,2,1,1539871026434
0,11,10,98.75,98.82,1,1,1539871027037
0,12,12,98.75,98.82,2,1,1539871027037
0,11,12,98.75,98.82,1,1,1539871027051
0,11,10,98.75,98.82,1,3,1539871027051
0,11,10,98.75,98.82,1,4,1539871027056
0,11,10,98.75,98.82,1,5,1539871027090
0,19,11,98.75,98.81,1,2,1539871028225
0,19,11,98.75,98.81,1,3,1539871028226
0,12,11,98.75,98.81,1,3,1539871028227
0,11,11,98.75,98.81,1,3,1539871028236
0,19,11,98.75,98.81,1,3,1539871028272
0,12,11,98.75,98.81,1,3,1539871028272
0,12,19,98.75,98.78,1,1,1539871028272
0,12,11,98.75,98.81,1,3,1539871028272
0,19,11,98.75,98.81,1,3,1539871028272
0,10,12,98.71,98.76,1,1,1539871028272
0,10,19,98.71,98.8,1,1,1539871028272
0,10,12,98.71,98.75,1,1,1539871028273
0,10,8,98.71,98.78,1,1,1539871028274
0,11,8,98.68,98.78,1,1,1539871028294
0,11,19,98.68,98.78,1,2,1539871028295
0,11,8,98.68,98.78,1,1,1539871028302
0,11,19,98.68,98.78,1,1,1539871028302
0,11,10,98.68,98.78,1,2,1539871028963
0,11,10,98.68,98.78,1,3,1539871029102
0,11,10,98.68,98.78,1,4,1539871029271
0,11,10,98.68,98.77,1,1,1539871029272
0,11,10,98.68,98.77,1,2,1539871029273
0,11,10,98.68,98.77,1,1,1539871029286
0,11,10,98.68,98.77,2,1,1539871029286
0,11,10,98.68,98.77,1,1,1539871029473
0,11,11,98.68,98.77,1,1,1539871029785
0,11,12,98.68,98.77,1,1,1539871030283
0,11,12,98.69,98.77,1,1,1539871030283
0,12,12,98.67,98.77,1,1,1539871030778
0,19,10,98.62,98.77,1,1,1539871030779
0,12,10,98.62,98.77,1,1,1539871030779
0,8,10,98.61,98.77,1,1,1539871030779
0,12,17,98.62,98.75,1,1,1539871030779
0,12,19,98.62,98.75,1,1,1539871030779
0,12,17,98.67,98.75,3,1,1539871030780
0,12,17,98.67,98.75,1,1,1539871030780
0,12,17,98.68,98.75,2,1,1539871030780
0,12,17,98.68,98.75,1,1,1539871030780
0,12,17,98.68,98.75,4,1,1539871030780
0,12,17,98.68,98.75,3,1,1539871030780
0,12,17,98.68,98.75,2,1,1539871030780
0,8,19,98.61,98.75,1,2,1539871030780
0,8,17,98.61,98.75,1,1,1539871030780
0,8,17,98.61,98.75,1,1,1539871030780
0,8,10,98.61,98.75,1,2,1539871030781
0,8,10,98.61,98.74,1,1,1539871030782
0,8,10,98.61,98.74,1,2,1539871030782
0,8,10,98.61,98.74,1,3,1539871030786
0,12,10,98.61,98.74,2,3,1539871031837
0,12,10,98.61,98.74,3,3,1539871032589
0,12,10,98.61,98.74,2,3,1539871032689
0,12,10,98.61,98.74,3,3,1539871033746
0,12,10,98.61,98.74,3,2,1539871033891
0,12,10,98.61,98.74,2,2,1539871037017
0,8,10,98.61,98.74,1,2,1539871037920
0,12,10,98.68,98.74,1,2,1539871037920
0,12,10,98.68,98.74,2,2,1539871038054
0,12,8,98.68,98.74,2,1,1539871038108
0,12,8,98.68,98.74,1,1,1539871038787
0,12,12,98.68,98.74,1,1,1539871039203
0,19,12,98.73,98.74,1,1,1539871039203
0,19,10,98.73,98.78,1,3,1539871039203
0,19,10,98.74,98.78,1,3,1539871039203
0,8,10,98.74,98.78,1,3,1539871039205
0,19,10,98.7,98.78,1,3,1539871039205
0,12,10,98.68,98.78,1,3,1539871039237
0,11,10,98.68,98.78,2,3,1539871041152
0,12,10,98.68,98.78,2,3,1539871044213
0,12,10,98.68,98.78,2,4,1539871044214
0,11,10,98.68,98.78,1,4,1539871044214
0,11,10,98.68,98.78,1,4,1539871044577
0,8,10,98.75,98.78,1,4,1539871044577
0,12,10,98.75,98.78,1,4,1539871044922
0,11,10,98.68,98.78,1,3,1539871044922
0,11,10,98.68,98.78,1,4,1539871044922
0,12,10,98.75,98.78,1,3,1539871044922
0,11,10,98.68,98.78,1,3,1539871044922
0,11,19,98.68,98.77,1,1,1539871044942
0,11,19,98.68,98.77,2,1,1539871045224
0,10,19,98.68,98.77,1,1,1539871045419
0,11,19,98.68,98.77,2,1,1539871048901
0,10,19,98.68,98.77,1,1,1539871054642
0,11,19,98.68,98.77,1,1,1539871055445
0,11,19,98.68,98.77,2,1,1539871056222
0,19,10,98.69,98.78,1,4,1539871057480
0,11,10,98.68,98.78,2,4,1539871057480
0,19,10,98.69,98.78,2,4,1539871057481
0,19,10,98.69,98.78,2,2,1539871057499
0,19,10,98.69,98.78,2,1,1539871057499
0,19,11,98.69,98.81,2,2,1539871057499
0,19,11,98.69,98.81,1,2,1539871057510
0,8,11,98.69,98.81,1,2,1539871057510
0,12,11,98.68,98.81,2,2,1539871060153
0,11,11,98.68,98.81,1,2,1539871060154
0,11,19,98.68,98.79,1,1,1539871060491
0,11,19,98.68,98.8,1,1,1539871060491
0,12,19,98.68,98.79,1,1,1539871060514
0,12,19,98.68,98.78,1,1,1539871060515
0,10,19,98.68,98.78,2,1,1539871060744
0,12,19,98.68,98.78,3,1,1539871061470
0,12,11,98.68,98.81,3,2,1539871061991
0,10,11,98.68,98.81,3,2,1539871062012
0,12,11,98.68,98.81,3,2,1539871062012
0,12,10,98.68,98.81,3,2,1539871062750
0,12,10,98.68,98.81,3,3,1539871062751
0,10,10,98.68,98.81,3,3,1539871062751
0,10,19,98.74,98.79,1,1,1539871067738
0,10,10,98.74,98.81,1,3,1539871067738
0,10,19,98.68,98.79,2,1,1539871067739
0,10,19,98.68,98.79,2,1,1539871067739
0,12,19,98.74,98.79,1,1,1539871067739
0,10,19,98.68,98.79,2,2,1539871067739
0,10,19,98.68,98.79,2,1,1539871067739
0,10,19,98.72,98.79,1,1,1539871067742
0,10,19,98.7,98.79,1,1,1539871067744
0,10,19,98.69,98.79,1,1,1539871067747
0,10,19,98.68,98.79,3,1,1539871067749
0,10,11,98.68,98.81,3,2,1539871067759
0,10,11,98.68,98.81,2,2,1539871069027
0,10,11,98.77,98.81,1,2,1539871069027
0,10,11,98.73,98.81,1,2,1539871069028
0,10,11,98.71,98.81,1,2,1539871069031
0,10,11,98.7,98.81,1,2,1539871069033
0,12,11,98.7,98.81,1,2,1539871070606
0,12,10,98.7,98.81,1,2,1539871071428
0,10,10,98.7,98.81,1,2,1539871072025
0,10,11,98.7,98.81,1,2,1539871073537
0,10,10,98.7,98.81,1,2,1539871074083
0,10,10,98.7,98.81,1,3,1539871074365
0,12,10,98.68,98.81,1,3,1539871075159
0,12,11,98.68,98.81,1,2,1539871075159
0,10,11,98.68,98.81,1,2,1539871075160
0,10,10,98.68,98.81,1,2,1539871075160
0,11,10,98.68,98.81,2,2,1539871081722
0,12,10,98.68,98.81,2,2,1539871081832
0,10,10,98.68,98.81,1,2,1539871081833
0,2,11,98.68,98.81,1,2,1539871081868
0,2,12,98.68,98.81,1,3,1539871089074
0,11,12,98.68,98.81,2,3,1539871092980
0,11,12,98.68,98.81,3,3,1539871094327
0,11,12,98.68,98.81,4,3,1539871099333
0,11,10,98.68,98.81,4,2,1539871099347
0,11,11,98.68,98.81,4,2,1539871099377
0,11,12,98.68,98.81,3,2,1539871099434
0,11,10,98.68,98.81,3,2,1539871099435
0,11,11,98.68,98.81,3,2,1539871099437
0,11,12,98.68,98.81,2,2,1539871099944
0,11,12,98.74,98.81,1,2,1539871099944
0,2,12,98.68,98.81,1,2,1539871099945
0,10,12,98.72,98.81,1,2,1539871099947
0,10,12,98.71,98.81,1,2,1539871099949
0,10,12,98.7,98.81,1,2,1539871099952
0,11,12,98.74,98.81,1,2,1539871101326
0,11,10,98.74,98.81,1,2,1539871101327
0,11,11,98.74,98.81,1,2,1539871101329
0,11,11,98.74,98.81,2,2,1539871103078
0,12,11,98.74,98.81,2,2,1539871103210
0,12,11,98.74,98.81,3,2,1539871104473
0,12,19,98.74,98.81,3,1,1539871104682
0,12,10,98.74,98.81,3,1,1539871104682
0,19,12,98.76,98.82,1,1,1539871104682
0,12,12,98.74,98.82,3,1,1539871104682
0,19,10,98.76,98.83,1,1,1539871104682
0,19,12,98.76,98.83,1,1,1539871104683
0,12,12,98.74,98.83,3,1,1539871104712
0,12,10,98.74,98.84,3,1,1539871105086
0,12,11,98.74,98.85,3,1,1539871105086
0,19,11,98.76,98.85,1,1,1539871105087
0,12,11,98.74,98.85,3,1,1539871105088
0,10,11,98.75,98.85,1,1,1539871105102
0,12,11,98.74,98.85,3,1,1539871105105
0,12,11,98.74,98.85,3,2,1539871105150
0,12,11,98.74,98.85,2,2,1539871105241
0,12,11,98.75,98.85,1,2,1539871106560
0,12,10,98.75,98.85,1,1,1539871106566
0,12,12,98.75,98.85,1,1,1539871107282
0,12,10,98.75,98.85,2,1,1539871107509
0,2,12,98.75,98.85,1,2,1539871107610
0,2,10,98.75,98.85,1,1,1539871107610
0,2,12,98.75,98.85,1,1,1539871108338
0,2,11,98.75,98.86,1,1,1539871108383
0,12,11,98.75,98.86,2,1,1539871108660
0,2,11,98.75,98.86,1,1,1539871109362
0,2,11,98.75,98.86,1,2,1539871109366
0,2,11,98.75,98.86,1,1,1539871109595
0,2,18,98.75,98.86,1,1,1539871110242
0,2,18,98.75,98.86,1,2,1539871110322
0,11,18,98.75,98.86,2,2,1539871110385
0,12,18,98.75,98.86,2,2,1539871110977
0,11,18,98.75,98.86,2,2,1539871110978
0,12,18,98.75,98.86,2,2,1539871113118
0,2,18,98.75,98.86,1,2,1539871113119
0,11,18,98.75,98.86,2,2,1539871114128
0,12,18,98.75,98.86,2,2,1539871114339
0,2,18,98.75,98.86,1,2,1539871114340
0,11,18,98.75,98.86,2,2,1539871115355
0,12,18,98.75,98.86,2,2,1539871115842
0,2,18,98.75,98.86,1,2,1539871115843
0,11,18,98.75,98.86,2,2,1539871116870
0,12,18,98.75,98.86,2,2,1539871120577
0,2,18,98.75,98.86,1,2,1539871120578
0,11,18,98.75,98.86,2,2,1539871121592
0,12,18,98.75,98.86,2,2,1539871124136
0,2,18,98.75,98.86,1,2,1539871124137
0,11,18,98.75,98.86,2,2,1539871124180
0,11,18,98.75,98.86,3,2,1539871127490
0,12,18,98.75,98.86,2,2,1539871127591
0,11,18,98.75,98.86,2,2,1539871127592
0,11,18,98.75,98.86,3,2,1539871130402
0,12,18,98.75,98.86,2,2,1539871130950
0,11,18,98.75,98.86,2,2,1539871130951
0,2,18,98.75,98.86,1,2,1539871131180
0,2,10,98.75,98.86,1,2,1539871131210
0,11,10,98.75,98.86,2,2,1539871131954
0,12,10,98.75,98.86,2,2,1539871134113
0,2,10,98.75,98.86,1,2,1539871134114
0,11,10,98.75,98.86,2,2,1539871135458
0,18,10,98.75,98.86,3,2,1539871135460
0,2,12,98.75,98.86,1,2,1539871147453
0,2,10,98.75,98.86,1,2,1539871147453
0,18,12,98.75,98.86,2,2,1539871147453
0,12,12,98.75,98.86,1,2,1539871147453
0,18,10,98.75,98.86,2,2,1539871147453
0,18,12,98.75,98.86,2,2,1539871147453
0,18,12,98.75,98.76,2,1,1539871147453
0,11,12,98.69,98.76,1,1,1539871147453
0,11,12,98.69,98.76,1,1,1539871147453
0,18,12,98.75,98.76,1,1,1539871147453
0,18,12,98.75,98.76,1,1,1539871147453
0,18,12,98.75,98.75,1,1,1539871147454
0,18,12,98.75,98.75,2,2,1539871147454
0,18,12,98.75,98.75,1,1,1539871147454
0,18,12,98.75,98.75,2,1,1539871147454
0,19,12,98.71,98.75,1,1,1539871147454
0,12,12,98.74,98.75,1,1,1539871147454
0,18,12,98.75,98.75,2,1,1539871147454
0,12,12,98.74,98.75,3,1,1539871147454
0,12,12,98.74,98.75,2,1,1539871147454
0,12,12,98.74,98.83,3,1,1539871147454
0,12,12,98.74,98.83,2,1,1539871147454
0,18,12,98.75,98.83,1,1,1539871147454
0,18,12,98.74,98.83,1,1,1539871147454
0,12,12,98.75,98.83,2,1,1539871147454
0,12,12,98.75,98.83,3,1,1539871147454
0,12,12,98.8,98.83,2,1,1539871147454
0,12,12,98.8,98.83,1,1,1539871147454
0,12,12,98.8,98.83,3,1,1539871147454
0,12,12,98.8,98.83,4,1,1539871147454
0,12,12,98.8,98.83,2,1,1539871147454
0,12,12,98.8,98.83,3,1,1539871147454
0,12,12,98.8,98.83,1,1,1539871147454
0,19,18,98.75,98.81,1,1,1539871147455
0,12,18,98.8,98.81,1,1,1539871147455
0,19,18,98.75,98.8,1,1,1539871147455
0,18,18,98.75,98.81,1,1,1539871147455
0,18,18,98.75,98.8,2,1,1539871147455
0,12,12,98.8,98.83,1,1,1539871147455
0,12,18,98.8,98.8,1,1,1539871147455
0,18,12,98.75,98.83,2,1,1539871147456
0,19,10,98.77,98.81,1,1,1539871147456
0,19,12,98.77,98.83,1,1,1539871147456
0,18,10,98.77,98.81,2,1,1539871147456
0,18,10,98.77,98.81,2,1,1539871147456
0,18,10,98.77,98.81,2,2,1539871147456
0,12,10,98.8,98.81,1,1,1539871147456
0,12,10,98.8,98.81,1,2,1539871147456
0,18,10,98.77,98.81,2,2,1539871147457
0,18,12,98.77,98.83,2,1,1539871147458
0,18,10,98.77,98.81,2,1,1539871147458
0,18,10,98.77,98.86,2,4,1539871147647
0,18,10,98.77,98.86,2,3,1539871150115
0,18,10,98.77,98.86,2,2,1539871150613
0,18,12,98.77,98.86,2,1,1539871152089
0,12,2,98.77,98.86,3,1,1539871152093
0,18,2,98.77,98.86,2,1,1539871152254
0,19,12,98.81,98.86,1,1,1539871152295
0,19,2,98.81,98.86,1,1,1539871152295
0,8,10,98.85,98.87,1,2,1539871152295
0,8,12,98.85,98.86,1,1,1539871152295
0,8,10,98.85,98.87,1,1,1539871152295
0,19,10,98.86,98.87,1,1,1539871152296
0,19,12,98.86,98.9,1,1,1539871152296
0,19,12,98.86,98.93,1,1,1539871152296
0,19,12,98.86,98.93,1,1,1539871152296
0,18,12,98.86,98.93,2,1,1539871152296
0,18,12,98.87,98.93,2,1,1539871152296
0,12,12,98.87,98.93,1,1,1539871152296
0,18,12,98.87,98.93,2,1,1539871152297
0,18,8,98.87,98.88,2,1,1539871152297
0,18,12,98.87,98.93,3,1,1539871153772
0,12,12,98.93,98.94,1,1,1539871153789
0,18,12,98.87,98.94,3,1,1539871153789
0,18,12,98.87,98.94,3,1,1539871153789
0,18,12,98.87,98.96,3,1,1539871153789
0,12,12,98.94,98.97,1,1,1539871153789
0,12,12,98.94,98.96,1,1,1539871153789
0,18,12,98.87,98.97,3,1,1539871153790
0,8,12,98.95,98.97,1,1,1539871153790
0,18,12,98.87,98.93,3,1,1539871153790
0,8,12,98.95,98.93,1,1,1539871153790
0,19,12,98.88,98.97,1,1,1539871153790
0,18,12,98.87,98.97,3,1,1539871153790
0,18,12,98.88,98.97,2,1,1539871153790
0,18,11,98.88,98.97,2,1,1539871156184
0,18,10,98.88,98.96,2,1,1539871156184
0,18,11,98.88,98.97,2,1,1539871156188
0,12,11,98.88,98.97,3,1,1539871160694
0,18,11,98.92,98.97,1,1,1539871160760
0,18,11,98.92,98.97,3,1,1539871160761
0,18,10,98.92,98.97,3,1,1539871161394
0,18,10,98.92,98.98,3,2,1539871161394
0,19,10,98.92,98.98,3,2,1539871163157
0,19,12,98.92,98.93,2,1,1539871163158
0,19,10,98.92,98.98,2,2,1539871163158
0,10,12,98.88,98.93,1,1,1539871163158
0,10,19,98.88,98.92,1,1,1539871163158
0,12,19,98.88,98.92,1,1,1539871163159
0,12,19,98.88,98.96,1,1,1539871163160
0,12,12,98.88,98.92,1,1,1539871163160
0,12,10,98.88,98.97,1,1,1539871163179
0,11,10,98.92,98.97,1,1,1539871163212
0,12,10,98.88,98.97,1,1,1539871163213
0,12,10,98.88,98.98,1,2,1539871164744
0,12,10,98.88,98.97,1,1,1539871168473
0,12,10,98.88,98.97,1,2,1539871168826
0,12,11,98.88,98.96,1,1,1539871169666
0,12,18,98.81,98.96,1,1,1539871171695
0,12,11,98.81,98.96,1,1,1539871171695
0,3,18,98.79,98.96,1,1,1539871171695
0,3,12,98.79,98.92,1,1,1539871171696
0,12,12,98.79,98.92,1,1,1539871171698
0,12,12,98.79,98.91,1,1,1539871171716
0,3,10,98.79,98.91,1,1,1539871172023
0,12,12,98.79,98.91,1,2,1539871172023
0,12,10,98.79,98.91,1,1,1539871172023
0,12,19,98.79,98.9,1,1,1539871172024
0,12,19,98.79,98.89,1,1,1539871172478
0,12,19,98.79,98.89,1,2,1539871172888
0,12,19,98.79,98.88,1,1,1539871172888
0,12,2,98.79,98.88,1,1,1539871178788
0,12,2,98.79,98.88,1,2,1539871178788
0,12,12,98.79,98.88,1,1,1539871178857
0,12,2,98.79,98.88,1,2,1539871178858
0,10,12,98.79,98.87,1,1,1539871179746
0,12,12,98.79,98.88,1,1,1539871179746
0,12,12,98.79,98.87,1,1,1539871179779
0,10,12,98.79,98.87,1,1,1539871180295
0,10,12,98.78,98.87,1,1,1539871180612
0,11,12,98.78,98.87,2,1,1539871186325
0,11,10,98.78,98.87,2,2,1539871186735
0,11,10,98.78,98.87,5,2,1539871186736
0,11,10,98.78,98.87,6,2,1539871187098
0,11,12,98.78,98.87,6,2,1539871190408
0,11,12,98.78,98.87,5,2,1539871191861
0,19,12,98.86,98.87,1,2,1539871191872
0,19,12,98.86,98.87,1,1,1539871191872
0,19,12,98.86,98.88,1,1,1539871191872
0,19,12,98.87,98.88,1,1,1539871191873
0,19,12,98.87,98.93,1,1,1539871191873
0,19,12,98.87,98.91,1,1,1539871191873
0,19,12,98.79,98.93,1,1,1539871191874
0,19,12,98.83,98.93,1,1,1539871191874
0,11,12,98.83,98.93,2,1,1539871193286
0,11,12,98.87,98.93,1,1,1539871193326
0,10,12,98.85,98.93,1,1,1539871200453
0,12,12,98.83,98.93,2,1,1539871200454
0,12,10,98.84,98.93,1,1,1539871200460
0,12,19,98.84,98.91,1,1,1539871200519
0,12,10,98.84,98.91,1,2,1539871200763
0,12,19,98.83,98.89,2,1,1539871200764
0,12,10,98.83,98.91,2,2,1539871200764
0,12,19,98.84,98.89,1,1,1539871200764
0,12,19,98.85,98.89,1,1,1539871200765
0,12,19,98.85,98.89,2,1,1539871200765
0,12,19,98.85,98.89,1,1,1539871200765
0,12,19,98.83,98.89,2,1,1539871200765
0,12,19,98.83,98.89,2,1,1539871200765
0,12,19,98.83,98.89,2,2,1539871200765
0,12,19,98.83,98.89,1,1,1539871200765
0,8,19,98.83,98.89,2,1,1539871200765
0,8,19,98.83,98.89,1,1,1539871200765
0,8,19,98.83,98.89,1,1,1539871200765
0,8,10,98.83,98.9,1,1,1539871200765
0,12,19,98.82,98.89,1,1,1539871200765
0,12,10,98.84,98.9,1,1,1539871200765
0,12,10,98.83,98.9,1,1,1539871200765
0,12,10,98.84,98.9,2,1,1539871200765
0,12,10,98.85,98.9,1,1,1539871200766
0,12,10,98.85,98.9,2,1,1539871200766
0,12,10,98.85,98.9,3,1,1539871200766
0,12,10,98.85,98.91,3,1,1539871200768
0,12,10,98.85,98.91,3,2,1539871200768
0,12,10,98.85,98.92,3,1,1539871201108
0,12,2,98.85,98.91,3,1,1539871201108
0,12,10,98.9,98.92,1,1,1539871201108
0,12,12,98.9,98.93,1,2,1539871201108
0,12,12,98.9,98.93,2,2,1539871201108
0,12,12,98.9,98.93,3,2,1539871201108
0,12,12,98.9,98.93,2,2,1539871201108
0,12,12,98.9,98.93,1,2,1539871201109
0,12,12,98.85,98.93,1,2,1539871201109
0,12,12,98.85,98.9,1,1,1539871201109
0,12,12,98.85,98.9,1,2,1539871201140
0,12,11,98.85,98.89,1,1,1539871201190
0,12,11,98.85,98.89,1,2,1539871201221
0,12,12,98.85,98.89,1,1,1539871201282
0,10,11,98.85,98.89,1,1,1539871201283
0,12,11,98.85,98.89,1,1,1539871201291
0,12,12,98.85,98.9,1,1,1539871201328
0,10,12,98.85,98.9,2,1,1539871201453
0,10,12,98.85,98.93,2,2,1539871201793
0,8,12,98.87,98.93,1,2,1539871201794
0,8,8,98.87,98.93,1,1,1539871202420
0,12,12,98.87,98.93,1,1,1539871204175
0,19,12,98.89,98.96,1,2,1539871204177
0,8,12,98.87,98.96,1,2,1539871204177
0,12,12,98.87,98.96,1,2,1539871204177
0,8,12,98.9,98.96,1,2,1539871204178
0,8,10,98.9,98.94,1,2,1539871205889
0,12,10,98.9,98.94,1,2,1539871205889
0,1,12,98.89,98.91,1,1,1539871205889
0,1,10,98.89,98.94,1,2,1539871205889
0,10,12,98.85,98.91,1,1,1539871205889
0,10,12,98.85,98.9,1,1,1539871205890
0,10,8,98.85,98.9,1,1,1539871205890
0,10,10,98.85,98.94,1,2,1539871205891
0,19,10,98.82,98.94,1,2,1539871205904
0,19,11,98.82,98.93,1,1,1539871205905
0,12,11,98.82,98.93,1,1,1539871205905
0,12,11,98.82,98.93,2,1,1539871205921
0,12,3,98.82,98.93,2,1,1539871206974
0,12,3,98.82,98.93,1,1,1539871206975
0,12,10,98.82,98.92,1,1,1539871206976
0,12,10,98.82,98.92,2,1,1539871207039
0,12,10,98.82,98.92,3,1,1539871207062
0,12,10,98.82,98.92,2,1,1539871207473
0,12,12,98.82,98.92,2,1,1539871208334
0,12,19,98.82,98.91,2,1,1539871208335
0,12,10,98.82,98.91,2,2,1539871209465
0,12,11,98.82,98.9,2,1,1539871209466
0,12,10,98.82,98.91,2,2,1539871209538
0,12,10,98.82,98.91,2,3,1539871210465
0,12,12,98.77,98.89,1,1,1539871213585
0,12,10,98.82,98.91,1,3,1539871213585
0,12,10,98.77,98.91,1,3,1539871213585
0,19,12,98.78,98.89,1,1,1539871213585
0,19,3,98.78,98.87,1,1,1539871213586
0,12,3,98.79,98.87,1,1,1539871213586
0,19,3,98.8,98.87,1,1,1539871213586
0,19,3,98.8,98.87,2,1,1539871213656
0,19,3,98.8,98.87,1,1,1539871213984
0,12,3,98.8,98.87,2,1,1539871213984
0,19,7,98.8,98.87,1,3,1539871214162
0,19,7,98.8,98.87,2,3,1539871214979
0,12,7,98.8,98.87,3,3,1539871215002
0,12,7,98.8,98.87,2,3,1539871216103
0,12,7,98.8,98.87,1,3,1539871216103
0,19,7,98.74,98.87,1,3,1539871216103
0,19,10,98.74,98.87,1,1,1539871216114
0,19,19,98.74,98.86,1,2,1539871216117
0,19,10,98.74,98.86,1,2,1539871216175
0,19,8,98.74,98.85,1,2,1539871216175
0,19,10,98.74,98.85,1,1,1539871216187
0,19,19,98.74,98.84,1,2,1539871216187
0,19,19,98.74,98.83,1,2,1539871216222
0,19,19,98.74,98.82,1,2,1539871216235
0,11,12,98.74,98.82,1,2,1539871228561
0,11,10,98.74,98.82,1,2,1539871228562
0,11,19,98.74,98.82,1,2,1539871228564
0,11,19,98.74,98.82,2,2,1539871228656
0,11,19,98.74,98.82,1,2,1539871228909
0,19,19,98.71,98.82,1,2,1539871230680
0,12,10,98.72,98.82,1,2,1539871230681
0,19,12,98.71,98.82,1,2,1539871230681
0,12,10,98.72,98.81,1,2,1539871230681
0,19,10,98.71,98.81,1,2,1539871230683
0,11,10,98.7,98.81,1,2,1539871230683
0,11,19,98.7,98.8,1,1,1539871230683
0,11,19,98.7,98.8,1,1,1539871230684
0,12,19,98.72,98.8,1,1,1539871230684
0,11,19,98.7,98.8,1,2,1539871230684
0,11,19,98.7,98.8,1,1,1539871230684
0,8,19,98.7,98.8,1,1,1539871230685
0,8,11,98.7,98.72,1,9,1539871230685
0,8,11,98.7,98.72,1,2,1539871230685
0,8,11,98.7,98.72,1,1,1539871230685
0,8,11,98.7,98.72,1,2,1539871230686
0,11,11,98.7,98.72,2,2,1539871230686
0,12,11,98.68,98.72,1,2,1539871230687
0,12,11,98.67,98.72,1,2,1539871230692
0,19,11,98.66,98.72,1,2,1539871230694
0,12,11,98.64,98.72,1,2,1539871231234
0,10,11,98.47,98.72,2,2,1539871231234
0,12,11,98.5,98.72,1,2,1539871231234
0,19,11,98.51,98.72,1,2,1539871231240
0,12,11,98.53,98.72,1,2,1539871231242
0,3,11,98.56,98.72,1,2,1539871231252
0,3,12,98.56,98.71,1,2,1539871231253
0,3,12,98.56,98.7,1,2,1539871231284
0,12,12,98.56,98.7,2,2,1539871231312
0,12,10,98.56,98.7,2,1,1539871232596
0,12,19,98.56,98.69,2,2,1539871232597
0,3,11,98.59,98.7,1,1,1539871233909
0,3,19,98.59,98.69,1,2,1539871233909
0,19,11,98.69,98.7,1,1,1539871233909
0,19,11,98.63,98.7,1,1,1539871233911
0,10,11,98.65,98.7,1,1,1539871233920
0,19,11,98.63,98.7,1,1,1539871233923
0,10,11,98.62,98.7,1,1,1539871234296
0,10,8,98.62,98.71,1,1,1539871234650
0,10,8,98.7,98.71,1,1,1539871234659
0,10,8,98.62,98.71,1,1,1539871234660
0,10,11,98.62,98.72,1,2,1539871234660
0,10,11,98.66,98.72,1,2,1539871234661
0,10,11,98.65,98.72,1,2,1539871234663
0,10,11,98.64,98.72,1,2,1539871234666
0,12,11,98.64,98.72,1,2,1539871235284
0,10,11,98.64,98.72,1,2,1539871238247
0,12,11,98.64,98.72,1,2,1539871238300
0,12,10,98.64,98.7,1,2,1539871240854
0,10,10,98.64,98.7,1,2,1539871240855
0,12,8,98.64,98.7,1,1,1539871240874
0,12,10,98.64,98.71,1,1,1539871240874
0,12,10,98.64,98.7,1,1,1539871240945
0,12,10,98.64,98.71,1,1,1539871241415
0,10,10,98.64,98.71,2,1,1539871242870
0,10,11,98.64,98.72,2,2,1539871243250
0,10,10,98.64,98.71,2,1,1539871249724
0,12,11,98.64,98.71,1,1,1539871249871
0,12,11,98.64,98.72,1,2,1539871250133
0,12,11,98.7,98.72,1,2,1539871250133
0,10,11,98.64,98.72,1,2,1539871250135
0,10,11,98.67,98.72,1,2,1539871250137
0,12,11,98.64,98.72,1,2,1539871250140
0,11,11,98.64,98.72,2,2,1539871255725
0,11,12,98.64,98.72,2,3,1539871256714
0,11,11,98.64,98.72,2,2,1539871260568
0,12,11,98.64,98.72,3,2,1539871260637
0,12,11,98.64,98.72,3,3,1539871261000
0,12,12,98.64,98.72,3,2,1539871261476
0,12,8,98.64,98.72,3,1,1539871261476
0,3,8,98.66,98.72,1,1,1539871261476
0,3,19,98.66,98.75,1,1,1539871261476
0,19,19,98.68,98.75,1,1,1539871261483
0,12,19,98.68,98.75,1,1,1539871261507
0,12,8,98.68,98.77,1,1,1539871261541
0,19,8,98.71,98.77,1,1,1539871261541
0,19,12,98.71,98.79,1,2,1539871261547
0,19,12,98.71,98.79,1,2,1539871261547
0,8,12,98.71,98.79,1,2,1539871261547
0,8,12,98.71,98.79,1,2,1539871261571
0,10,12,98.7,98.79,1,2,1539871261571
0,10,12,98.7,98.79,1,1,1539871262715
0,11,12,98.77,98.79,1,1,1539871262725
0,11,12,98.77,98.83,1,2,1539871262729
0,11,19,98.77,98.85,1,1,1539871262730
0,19,12,98.77,98.85,2,1,1539871264283
0,19,12,98.77,98.85,3,1,1539871264437
0,19,19,98.77,98.85,3,1,1539871264438
0,19,12,98.77,98.87,3,1,1539871264722
0,19,12,98.77,98.87,3,1,1539871264722
0,19,12,98.79,98.87,1,1,1539871264722
0,10,12,98.78,98.87,1,1,1539871264723
0,10,19,98.78,98.85,1,1,1539871265488
0,19,19,98.77,98.85,3,1,1539871265623
0,19,11,98.77,98.91,3,1,1539871268733
0,19,11,98.81,98.91,1,1,1539871268739
0,12,11,98.81,98.91,1,1,1539871268764
0,19,11,98.81,98.91,1,1,1539871269471
0,11,11,98.85,98.91,1,1,1539871269726
0,11,19,98.85,98.92,1,1,1539871270227
0,12,19,98.86,98.92,1,1,1539871270230
0,12,19,98.86,98.92,1,1,1539871272316
0,19,19,98.87,98.92,1,1,1539871272316
0,12,11,98.86,98.93,1,1,1539871272345
0,19,11,98.87,98.94,1,1,1539871272345
0,19,11,98.87,98.93,1,1,1539871272345
0,12,11,98.86,98.94,1,1,1539871272345
0,12,19,98.86,98.94,1,1,1539871273270
0,10,19,98.86,98.94,1,1,1539871275288
0,19,10,98.88,98.98,1,1,1539871275572
0,10,10,98.86,98.98,1,1,1539871275572
0,10,10,98.88,98.98,1,1,1539871275602
0,11,10,98.94,98.98,1,1,1539871276725
0,10,10,98.88,98.98,1,1,1539871276725
0,10,10,98.92,98.98,1,1,1539871276728
0,10,10,98.91,98.98,1,1,1539871276731
0,10,10,98.9,98.98,1,1,1539871276733
0,10,10,98.9,98.97,1,1,1539871280106
0,10,19,98.9,98.97,1,1,1539871280131
0,11,19,98.88,98.97,1,1,1539871280230
0,12,19,98.88,98.97,1,1,1539871280233
0,12,19,98.88,98.97,1,1,1539871283664
0,11,19,98.91,98.97,1,1,1539871283664
0,12,12,98.88,98.97,1,1,1539871283838
0,12,11,98.88,98.97,2,1,1539871283839
0,12,19,98.88,98.97,2,1,1539871283945
0,12,12,98.88,98.97,2,1,1539871283946
0,2,11,98.88,98.97,1,1,1539871283947
