c1,c2,c3,c4,e,p,s,t
51,0,0,0,0,98.12,2,1539821043278
0,0,0,0,4,98.4,111,1539864000567
14,41,0,0,11,97.44,100,1539868923214
14,41,0,0,11,97.44,100,1539869154475
14,41,0,0,19,97.44,100,1539869154475
14,41,0,0,11,97.44,100,1539869155954
14,41,0,0,19,97.44,100,1539869155954
14,41,0,0,11,97.4,100,1539869163891
14,41,0,0,11,97.4,100,1539869172831
14,41,0,0,11,97.4,100,1539869172832
14,37,41,0,11,97.4,20,1539869172969
14,37,41,0,11,97.4,80,1539869175331
14,37,41,0,11,97.4,20,1539869175331
14,41,0,0,11,97.4,100,1539869175562
14,41,0,0,11,97.4,100,1539869176064
14,41,0,0,11,97.4,100,1539869176224
14,41,0,0,11,97.4,100,1539869176368
14,41,0,0,11,97.4,100,1539869177026
14,41,0,0,11,97.4,100,1539869177026
14,41,0,0,11,97.4,100,1539869177027
14,37,41,0,11,97.4,30,1539869177144
14,37,41,0,11,97.4,70,1539869177272
14,37,41,0,11,97.4,30,1539869177272
14,41,0,0,11,97.4,100,1539869179981
14,41,0,0,11,97.4,100,1539869184328
14,37,41,0,11,97.4,50,1539869184328
14,41,0,0,12,98.1,100,1539869221455
37,0,0,0,12,98.1,89,1539869325147
37,0,0,0,11,99,30,1539869398806
37,0,0,0,11,99,45,1539869399801
37,0,0,0,11,99,20,1539869400030
25,16,0,0,11,99,20,1539869400030
37,0,0,0,11,101.49,88,1539869400202
51,0,0,0,0,99.23,,1539869400703
25,0,0,0,10,99.23,13325,1539869400703
51,0,0,0,0,99.25,,1539869401232
0,0,0,0,10,99.25,300,1539869401232
14,41,0,0,8,99.23,100,1539869401450
0,0,0,0,8,99.23,100,1539869401495
51,0,0,0,0,98.5836,,1539869407078
0,0,0,0,4,98.5836,113,1539869407078
0,0,0,0,12,98.61,100,1539869419633
25,16,0,0,12,98.61,100,1539869419633
0,0,0,0,4,98.93,200,1539869453236
0,0,0,0,4,99.09,100,1539869456483
0,0,0,0,10,99.09,100,1539869456748
14,37,41,0,10,99.09,74,1539869463507
37,0,0,0,10,99.09,26,1539869463507
37,0,0,0,4,99.1009,50,1539869464994
37,0,0,0,10,99.09,13,1539869465555
14,37,41,0,10,99.09,87,1539869465556
0,0,0,0,12,98.93,100,1539869468684
0,0,0,0,4,98.929,100,1539869478175
37,0,0,0,10,98.72,50,1539869479402
0,0,0,0,4,98.8074,200,1539869485588
37,0,0,0,4,98.933,76,1539869498678
0,0,0,0,4,99.18,180,1539869508659
0,0,0,0,4,99.18,100,1539869510343
0,0,0,0,4,99.18,100,1539869512328
14,37,41,0,2,98.82,39,1539869516273
14,41,0,0,2,98.81,100,1539869520416
0,0,0,0,4,98.98,300,1539869553143
0,0,0,0,4,98.98,300,1539869553143
0,0,0,0,4,98.98,300,1539869553144
0,0,0,0,15,98.98,300,1539869553148
0,0,0,0,4,98.98,300,1539869553149
0,0,0,0,4,98.98,400,1539869553150
0,0,0,0,4,98.98,300,1539869553170
0,0,0,0,4,98.98,300,1539869553258
14,37,41,0,18,98.98,50,1539869555079
14,37,41,0,18,98.98,50,1539869555079
0,0,0,0,11,98.99,100,1539869559648
14,37,41,0,10,98.99,2,1539869559648
14,41,0,0,18,98.98,100,1539869559648
14,41,0,0,12,99.07,100,1539869559648
14,41,0,0,2,98.98,100,1539869559648
0,0,0,0,10,98.91,100,1539869560180
0,0,0,0,2,98.91,100,1539869560181
0,0,0,0,12,98.91,100,1539869569173
0,0,0,0,2,99.005,100,1539869577193
0,0,0,0,4,99.1,100,1539869577194
0,0,0,0,12,99.005,100,1539869577195
0,0,0,0,15,99.005,200,1539869577196
37,0,0,0,4,98.9164,6,1539869577352
14,41,0,0,12,98.91,100,1539869581553
14,37,41,0,12,98.91,50,1539869581553
14,37,41,0,10,98.88,23,1539869581554
37,0,0,0,12,98.91,50,1539869581554
0,0,0,0,12,98.91,100,1539869581554
14,37,41,0,10,98.88,74,1539869581554
14,37,41,0,10,98.88,3,1539869581554
14,37,41,0,12,98.82,47,1539869581554
0,0,0,0,11,98.82,100,1539869581777
37,0,0,0,12,98.82,53,1539869581778
14,41,0,0,10,98.82,100,1539869581778
51,0,0,0,0,98.5,,1539869590184
0,0,0,0,4,98.5,380,1539869590184
14,41,0,0,8,98.5,100,1539869590189
14,41,0,0,8,98.5,100,1539869590189
37,0,0,0,4,98.5011,40,1539869590197
14,41,0,0,12,98.51,100,1539869590210
14,41,0,0,8,98.5,400,1539869590210
14,41,0,0,8,98.5,100,1539869590211
0,0,0,0,8,98.5,300,1539869590211
51,0,0,0,0,98.495,,1539869590212
0,0,0,0,4,98.495,300,1539869590212
0,0,0,0,4,98.5,100,1539869590619
51,0,0,0,0,98.32,,1539869591903
0,0,0,0,4,98.32,100,1539869591903
0,0,0,0,4,98.455,740,1539869597051
0,0,0,0,10,98.32,100,1539869598888
0,0,0,0,12,98.32,100,1539869598888
14,41,0,0,10,98.32,100,1539869598888
0,0,0,0,12,98.32,100,1539869598888
37,0,0,0,10,98.32,56,1539869598889
14,37,41,0,10,98.29,5,1539869599935
37,0,0,0,10,98.2,5,1539869599939
51,0,0,0,0,98.21,,1539869600142
0,0,0,0,4,98.21,100,1539869600142
51,0,0,0,0,98.2,,1539869600143
14,41,0,0,12,98.2,100,1539869600143
14,37,41,0,10,98.2,95,1539869600143
14,37,41,0,8,98,5,1539869600147
37,0,0,0,4,97.97,90,1539869600228
37,0,0,0,4,97.74,35,1539869607202
51,0,0,0,0,97.965,,1539869607592
0,0,0,0,4,97.965,100,1539869607592
37,0,0,0,4,97.74,5,1539869607595
37,0,0,0,4,97.74,20,1539869607597
51,0,0,0,0,97.8,,1539869607693
14,41,0,0,11,97.8,200,1539869607693
51,0,0,0,0,97.75,,1539869607698
0,0,0,0,11,97.75,100,1539869607698
0,0,0,0,11,97.75,100,1539869607698
37,0,0,0,4,98.0387,20,1539869607811
0,0,0,0,4,97.86,400,1539869608425
0,0,0,0,12,97.86,100,1539869608925
37,0,0,0,4,97.53,8,1539869612909
51,0,0,0,0,97.56,,1539869623170
14,41,0,0,12,97.56,100,1539869623170
0,0,0,0,4,97.875,100,1539869624022
0,0,0,0,10,97.87,100,1539869630304
37,0,0,0,4,97.63,1,1539869631736
37,0,0,0,4,97.97,1,1539869631960
37,0,0,0,4,97.97,34,1539869632085
0,0,0,0,10,97.87,100,1539869632779
37,0,0,0,7,97.44,23,1539869638583
14,37,41,0,10,97.78,2,1539869639412
37,0,0,0,10,97.5,98,1539869639413
51,0,0,0,0,97.47,,1539869640268
14,41,0,0,10,97.47,100,1539869640268
51,0,0,0,0,97.42,,1539869640271
51,0,0,0,0,97.41,,1539869640271
51,0,0,0,0,97.4,,1539869640271
0,0,0,0,11,97.42,100,1539869640271
0,0,0,0,11,97.41,100,1539869640271
0,0,0,0,11,97.4,250,1539869640271
0,0,0,0,12,97.41,100,1539869640271
0,0,0,0,12,97.4,350,1539869640271
14,41,0,0,11,97.41,100,1539869640539
14,41,0,0,11,97.41,100,1539869640539
14,41,0,0,7,97.41,100,1539869640539
14,41,0,0,19,97.41,100,1539869640539
14,41,0,0,18,97.41,100,1539869640539
14,41,0,0,8,97.41,100,1539869640539
14,41,0,0,12,97.41,100,1539869640539
14,41,0,0,2,97.41,100,1539869640539
37,0,0,0,4,97.99,1,1539869640562
37,0,0,0,15,97.56,51,1539869640564
0,0,0,0,15,97.41,249,1539869640564
37,0,0,0,4,97.41,5,1539869640568
0,0,0,0,15,97.41,100,1539869640574
14,41,0,0,11,97.41,100,1539869641403
0,0,0,0,4,97.6325,100,1539869642203
0,0,0,0,15,97.635,200,1539869646526
0,0,0,0,4,97.635,200,1539869646527
0,0,0,0,4,97.635,100,1539869646529
0,0,0,0,10,97.63,100,1539869660828
0,0,0,0,15,97.46,100,1539869673151
14,41,0,0,10,97.41,200,1539869676522
14,41,0,0,10,97.4,138,1539869676522
14,41,0,0,18,97.42,100,1539869676522
14,37,41,0,12,97.4,15,1539869676522
14,37,41,0,12,97.4,2,1539869676522
14,37,41,0,12,97.4,83,1539869676522
0,0,0,0,15,97.4,100,1539869676528
37,0,0,0,4,97.6819,33,1539869681017
0,0,0,0,15,97.635,100,1539869681023
0,0,0,0,10,97.67,100,1539869686121
0,0,0,0,18,97.77,100,1539869686121
0,0,0,0,7,97.75,100,1539869686121
0,0,0,0,19,97.635,100,1539869686121
0,0,0,0,12,97.635,100,1539869686121
37,0,0,0,12,97.73,79,1539869686121
0,0,0,0,15,97.635,100,1539869686146
0,0,0,0,15,97.75,100,1539869693151
37,0,0,0,18,97.78,78,1539869693585
14,41,0,0,11,97.64,100,1539869693592
0,0,0,0,2,97.755,100,1539869700164
0,0,0,0,12,97.755,100,1539869700168
0,0,0,0,4,97.755,100,1539869700191
37,0,0,0,4,97.85,50,1539869700197
37,0,0,0,4,97.64,5,1539869700208
14,41,0,0,11,97.75,100,1539869703398
37,0,0,0,12,97.755,3,1539869703822
0,0,0,0,4,97.755,100,1539869703822
0,0,0,0,10,97.79,100,1539869705862
37,0,0,0,10,97.79,62,1539869707110
0,0,0,0,11,97.64,100,1539869708583
37,0,0,0,12,97.755,97,1539869708584
0,0,0,0,15,97.755,100,1539869708585
0,0,0,0,4,97.755,100,1539869708585
37,0,0,0,4,97.68,45,1539869712782
37,0,0,0,11,97.76,97,1539869714073
37,0,0,0,11,97.76,3,1539869714073
0,0,0,0,18,97.86,100,1539869717081
0,0,0,0,15,97.81,100,1539869717084
14,41,0,0,10,97.87,100,1539869717260
14,41,0,0,18,97.87,100,1539869717260
14,37,41,0,19,97.87,21,1539869717260
14,41,0,0,12,97.87,100,1539869717260
14,41,0,0,2,97.81,100,1539869717260
14,37,41,0,12,97.87,79,1539869717260
0,0,0,0,19,97.81,100,1539869717260
14,37,41,0,19,97.87,79,1539869717260
14,41,0,0,12,97.87,100,1539869717260
14,37,41,0,8,97.87,10,1539869717260
14,41,0,0,12,97.87,100,1539869717260
14,37,41,0,12,97.92,77,1539869717260
14,37,41,0,12,97.92,23,1539869717260
14,37,41,0,12,97.92,1,1539869717261
14,37,41,0,12,97.92,74,1539869717261
14,41,0,0,19,97.9,100,1539869717261
14,37,41,0,12,97.92,25,1539869717261
0,0,0,0,11,97.9,100,1539869717261
0,0,0,0,15,97.9,100,1539869717261
14,37,41,0,19,97.92,13,1539869717261
14,37,41,0,19,97.92,87,1539869717261
37,0,0,0,4,98.19,2,1539869720440
37,0,0,0,12,97.96,2,1539869722490
37,0,0,0,15,98.16,1,1539869722618
37,0,0,0,15,98.18,99,1539869722618
0,0,0,0,12,98.05,100,1539869725410
0,0,0,0,4,98.18,100,1539869725413
14,41,0,0,12,98.05,100,1539869725477
0,0,0,0,10,98.19,100,1539869725510
0,0,0,0,11,98.19,100,1539869725510
0,0,0,0,10,98.19,100,1539869725510
0,0,0,0,2,98.05,100,1539869725510
0,0,0,0,4,98.42,277,1539869744106
0,0,0,0,4,98.42,300,1539869744108
0,0,0,0,4,98.42,200,1539869744108
0,0,0,0,15,98.42,300,1539869744114
0,0,0,0,4,98.42,200,1539869744115
0,0,0,0,4,98.42,300,1539869744121
0,0,0,0,4,98.42,300,1539869744124
0,0,0,0,4,98.42,300,1539869744238
0,0,0,0,4,98.6,100,1539869746208
14,37,41,0,11,98.47,97,1539869746233
14,37,41,0,11,98.42,3,1539869746233
14,41,0,0,12,98.47,100,1539869746233
14,37,41,0,11,98.42,97,1539869746233
0,0,0,0,12,98.42,100,1539869746234
14,37,41,0,11,98.42,88,1539869747572
14,37,41,0,11,98.42,12,1539869747572
14,41,0,0,11,98.42,100,1539869749096
37,0,0,0,4,98.5609,46,1539869755466
14,37,41,0,12,98.32,2,1539869757342
14,41,0,0,12,98.32,100,1539869757342
0,0,0,0,2,98.2,100,1539869757342
0,0,0,0,4,98.355,3536,1539869757356
0,0,0,0,10,98.36,100,1539869767641
0,0,0,0,10,98.36,100,1539869767641
0,0,0,0,12,98.35,100,1539869767641
14,41,0,0,10,98.35,100,1539869767641
0,0,0,0,12,98.35,100,1539869767641
14,41,0,0,10,98.35,100,1539869783151
14,41,0,0,10,98.35,100,1539869783151
0,0,0,0,4,98.35,200,1539869784427
37,0,0,0,4,98.45,28,1539869784433
37,0,0,0,4,98.1601,1,1539869784648
37,0,0,0,4,98.47,65,1539869787430
37,0,0,0,4,98.1601,10,1539869806578
0,0,0,0,15,98.35,100,1539869813153
14,37,41,0,12,98.44,2,1539869818015
0,0,0,0,4,98.4682,300,1539869819395
14,41,0,0,11,98.46,100,1539869819654
14,41,0,0,11,98.35,100,1539869819681
0,0,0,0,11,98.35,100,1539869819681
0,0,0,0,10,98.44,100,1539869820921
0,0,0,0,19,98.37,100,1539869820922
0,0,0,0,12,98.37,100,1539869820922
0,0,0,0,2,98.37,100,1539869820922
14,37,41,0,10,98.37,78,1539869840310
37,0,0,0,10,98.37,22,1539869840310
0,0,0,0,4,98.375,587,1539869845033
0,0,0,0,4,98.375,477,1539869845071
0,0,0,0,4,98.54,100,1539869845545
0,0,0,0,4,98.54,100,1539869846702
0,0,0,0,4,98.53,200,1539869863180
0,0,0,0,4,98.53,100,1539869878441
37,0,0,0,12,98.37,2,1539869879019
0,0,0,0,4,98.21,100,1539869880160
0,0,0,0,10,98.21,100,1539869880161
0,0,0,0,10,98.21,100,1539869880161
0,0,0,0,10,98.21,100,1539869880161
0,0,0,0,12,98.21,100,1539869880161
14,37,41,0,10,98.21,25,1539869880162
14,41,0,0,10,98.21,100,1539869880162
0,0,0,0,10,98.21,100,1539869880162
0,0,0,0,10,98.21,100,1539869880602
14,41,0,0,10,98.21,100,1539869880608
37,0,0,0,10,98.21,75,1539869881231
0,0,0,0,19,98.21,100,1539869881231
0,0,0,0,10,98.2,100,1539869881231
0,0,0,0,8,98.17,100,1539869881232
0,0,0,0,10,98.17,100,1539869881233
37,0,0,0,10,98,18,1539869882591
14,41,0,0,12,97.985,100,1539869889656
0,0,0,0,4,97.99,100,1539869900827
0,0,0,0,4,97.99,100,1539869900833
0,0,0,0,2,97.99,100,1539869905432
0,0,0,0,4,98.125,300,1539869911444
0,0,0,0,4,97.99,100,1539869911495
0,0,0,0,11,97.99,100,1539869911496
37,0,0,0,12,97.99,2,1539869911496
0,0,0,0,11,97.99,100,1539869915269
0,0,0,0,11,97.99,100,1539869938713
0,0,0,0,2,97.9,100,1539869948071
0,0,0,0,10,97.9,100,1539869948071
0,0,0,0,10,98.07,100,1539869949569
14,41,0,0,11,98.07,100,1539869949569
14,41,0,0,19,97.99,100,1539869949569
14,41,0,0,12,97.895,100,1539869949569
37,0,0,0,10,98.07,2,1539869950255
0,0,0,0,4,97.9,100,1539869951534
37,0,0,0,4,97.79,10,1539869953302
0,0,0,0,10,97.9,100,1539869962612
37,0,0,0,4,98.06,70,1539869965460
37,0,0,0,4,97.72,51,1539869971931
37,0,0,0,4,97.72,16,1539869971932
0,0,0,0,8,97.9,100,1539869978012
37,0,0,0,12,97.9,2,1539869978012
0,0,0,0,10,97.9,100,1539869978013
0,0,0,0,12,97.9,100,1539869978013
0,0,0,0,11,97.91,100,1539869978013
14,41,0,0,10,97.9,100,1539869978017
0,0,0,0,4,97.98,100,1539869978166
0,0,0,0,18,97.77,100,1539869978675
37,0,0,0,18,97.75,47,1539869978675
37,0,0,0,2,97.74,7,1539869978676
0,0,0,0,4,97.7978,100,1539869985457
0,0,0,0,15,97.875,100,1539870001263
0,0,0,0,10,97.79,100,1539870002158
0,0,0,0,2,97.79,100,1539870002158
0,0,0,0,12,97.79,100,1539870002158
0,0,0,0,12,97.79,100,1539870002158
14,37,41,0,10,97.79,26,1539870002159
37,0,0,0,10,97.79,74,1539870002159
0,0,0,0,19,97.75,100,1539870002159
0,0,0,0,19,97.75,100,1539870002159
14,41,0,0,10,97.79,200,1539870002159
14,41,0,0,10,97.79,100,1539870002160
14,37,41,0,10,97.79,74,1539870002160
37,0,0,0,10,97.79,26,1539870002160
0,0,0,0,4,97.92,100,1539870003139
37,0,0,0,4,97.89,4,1539870007179
37,0,0,0,10,97.71,10,1539870009955
0,0,0,0,4,97.91,100,1539870011372
0,0,0,0,10,97.91,100,1539870021944
14,41,0,0,11,97.91,100,1539870033012
37,0,0,0,12,97.9,86,1539870033012
37,0,0,0,12,97.9,78,1539870033012
14,41,0,0,19,97.91,100,1539870033012
37,0,0,0,12,97.9,22,1539870033012
14,41,0,0,10,97.91,100,1539870033012
37,0,0,0,19,97.91,4,1539870033012
14,37,41,0,10,97.92,68,1539870033012
14,37,41,0,10,97.92,32,1539870033012
37,0,0,0,2,97.91,4,1539870033012
37,0,0,0,19,97.91,96,1539870033012
14,37,41,0,12,97.92,32,1539870033012
37,0,0,0,12,97.9,4,1539870033013
37,0,0,0,12,97.9,4,1539870033013
14,41,0,0,12,97.95,100,1539870033013
14,37,41,0,12,97.96,14,1539870033013
14,41,0,0,10,97.93,100,1539870033014
14,41,0,0,10,97.93,200,1539870033015
0,0,0,0,4,97.91,100,1539870033022
0,0,0,0,10,97.96,100,1539870033175
0,0,0,0,4,97.89,100,1539870033188
0,0,0,0,4,97.9,200,1539870033238
0,0,0,0,11,97.98,100,1539870034147
14,41,0,0,12,97.98,100,1539870034148
14,41,0,0,12,97.98,100,1539870034148
14,41,0,0,10,97.99,168,1539870034148
14,37,41,0,10,97.99,32,1539870034148
14,41,0,0,10,97.99,100,1539870034149
0,0,0,0,4,97.915,100,1539870036366
0,0,0,0,4,97.915,100,1539870036885
0,0,0,0,10,98.06,100,1539870037577
14,41,0,0,10,98.06,100,1539870038753
0,0,0,0,10,98.09,100,1539870038753
0,0,0,0,12,98.11,100,1539870050021
37,0,0,0,12,98.1,10,1539870050021
0,0,0,0,10,98.11,112,1539870050021
37,0,0,0,12,98.09,90,1539870050021
37,0,0,0,19,98.11,56,1539870050021
37,0,0,0,12,98.09,10,1539870050021
14,37,41,0,19,98.11,44,1539870050021
37,0,0,0,10,98.11,88,1539870050021
14,37,41,0,12,98.11,10,1539870050022
14,41,0,0,11,98.14,100,1539870050022
0,0,0,0,4,98.1,100,1539870050030
0,0,0,0,3,97.92,100,1539870056717
37,0,0,0,12,98.14,2,1539870062049
0,0,0,0,4,98.045,101,1539870074485
14,37,41,0,10,97.97,2,1539870074492
37,0,0,0,4,97.9396,52,1539870078310
37,0,0,0,4,98.1999,1,1539870079444
0,0,0,0,4,98.195,190,1539870085594
0,0,0,0,11,98.2,100,1539870086152
0,0,0,0,11,98.2,100,1539870086152
37,0,0,0,12,98.2,10,1539870086152
37,0,0,0,12,98.2,90,1539870086152
14,37,41,0,12,98.2,10,1539870086153
0,0,0,0,4,98.2,138,1539870086156
0,0,0,0,10,98.39,100,1539870104171
0,0,0,0,10,98.4,200,1539870104172
14,41,0,0,11,98.4,100,1539870104172
14,41,0,0,10,98.4,100,1539870104173
14,37,41,0,12,98.4,79,1539870104173
0,0,0,0,11,98.62,100,1539870104174
14,41,0,0,10,98.4,100,1539870104174
0,0,0,0,15,98.4,100,1539870104175
0,0,0,0,4,98.39,100,1539870104178
0,0,0,0,4,98.57,100,1539870107540
14,41,0,0,10,98.57,100,1539870114521
0,0,0,0,11,98.57,100,1539870119542
37,0,0,0,10,98.56,10,1539870120047
37,0,0,0,12,98.57,2,1539870123017
0,0,0,0,4,98.525,100,1539870129201
0,0,0,0,10,98.64,100,1539870134211
37,0,0,0,12,98.65,15,1539870134211
0,0,0,0,12,98.65,285,1539870134211
0,0,0,0,10,98.65,100,1539870134211
14,37,41,0,10,98.67,35,1539870134212
14,37,41,0,12,98.65,15,1539870134212
14,37,41,0,10,98.67,10,1539870134212
37,0,0,0,12,98.58,10,1539870134212
37,0,0,0,18,98.58,10,1539870134212
37,0,0,0,12,98.65,10,1539870134212
0,0,0,0,10,98.55,100,1539870136166
0,0,0,0,4,98.55,100,1539870136166
14,41,0,0,19,98.55,100,1539870136166
14,41,0,0,8,98.55,100,1539870136167
0,0,0,0,11,98.52,100,1539870136167
14,37,41,0,10,98.54,5,1539870136167
14,37,41,0,10,98.52,95,1539870136167
14,41,0,0,12,98.55,100,1539870136167
14,41,0,0,2,98.55,100,1539870136167
0,0,0,0,19,98.55,100,1539870136167
14,37,41,0,10,98.52,10,1539870136167
14,41,0,0,8,98.52,100,1539870136167
0,0,0,0,12,98.52,100,1539870136167
0,0,0,0,12,98.52,100,1539870136167
14,37,41,0,8,98.52,42,1539870136167
14,37,41,0,1,98.46,68,1539870136167
0,0,0,0,15,98.52,100,1539870136167
14,37,41,0,8,98.52,58,1539870136168
0,0,0,0,11,98.52,100,1539870136170
0,0,0,0,4,98.525,100,1539870136171
0,0,0,0,15,98.5,100,1539870136268
37,0,0,0,8,98.47,62,1539870136449
0,0,0,0,11,98.41,100,1539870136449
0,0,0,0,10,98.43,100,1539870136449
0,0,0,0,19,98.41,100,1539870136449
0,0,0,0,12,98.41,100,1539870136449
37,0,0,0,8,98.47,8,1539870136449
37,0,0,0,8,98.47,15,1539870136450
37,0,0,0,8,98.47,1,1539870136451
0,0,0,0,4,98.52,100,1539870137169
0,0,0,0,4,98.52,100,1539870137172
0,0,0,0,4,98.52,100,1539870137191
0,0,0,0,4,98.52,100,1539870137194
0,0,0,0,15,98.52,100,1539870138768
14,41,0,0,10,98.53,100,1539870140767
0,0,0,0,10,98.56,100,1539870143718
0,0,0,0,11,98.59,100,1539870151008
0,0,0,0,11,98.62,100,1539870151008
0,0,0,0,11,98.68,600,1539870151008
0,0,0,0,11,98.68,100,1539870151008
0,0,0,0,11,98.68,100,1539870151008
37,0,0,0,4,98.64,20,1539870151033
14,41,0,0,10,98.68,210,1539870151068
0,0,0,0,12,98.67,100,1539870152390
0,0,0,0,4,98.67,100,1539870152872
0,0,0,0,4,98.655,100,1539870154717
37,0,0,0,4,98.53,50,1539870155331
0,0,0,0,4,98.53,100,1539870156131
0,0,0,0,11,98.53,100,1539870157818
14,37,41,0,12,98.46,1,1539870169237
14,41,0,0,12,98.65,120,1539870175197
0,0,0,0,4,98.66,100,1539870177186
0,0,0,0,10,98.62,100,1539870180047
37,0,0,0,10,98.52,10,1539870180051
0,0,0,0,4,98.61,100,1539870181907
37,0,0,0,12,98.5,2,1539870185814
0,0,0,0,4,98.59,100,1539870187615
0,0,0,0,4,98.4795,100,1539870200937
14,41,0,0,11,98.47,100,1539870204906
0,0,0,0,4,98.55,100,1539870205464
37,0,0,0,4,98.57,30,1539870205464
0,0,0,0,4,98.59,200,1539870217184
37,0,0,0,8,98.47,14,1539870222342
0,0,0,0,11,98.41,100,1539870222342
14,41,0,0,3,98.4,190,1539870222342
14,37,41,0,3,98.4,10,1539870222342
37,0,0,0,12,98.41,3,1539870222342
14,37,41,0,10,98.4,3,1539870222342
0,0,0,0,10,98.4,100,1539870222342
14,37,41,0,10,98.4,17,1539870222342
14,37,41,0,10,98.4,27,1539870222342
0,0,0,0,4,98.5,100,1539870222342
0,0,0,0,10,98.4,153,1539870222342
0,0,0,0,8,98.4,100,1539870222342
0,0,0,0,8,98.42,100,1539870222343
0,0,0,0,18,98.41,100,1539870222343
0,0,0,0,19,98.4,100,1539870222343
0,0,0,0,18,98.44,100,1539870222343
0,0,0,0,7,98.4,100,1539870222343
0,0,0,0,19,98.42,100,1539870222343
0,0,0,0,7,98.44,100,1539870222343
0,0,0,0,10,98.45,200,1539870222343
0,0,0,0,2,98.43,100,1539870222343
0,0,0,0,12,98.41,100,1539870222343
0,0,0,0,2,98.43,100,1539870222343
0,0,0,0,12,98.43,100,1539870222343
0,0,0,0,4,98.445,100,1539870222344
0,0,0,0,18,98.44,100,1539870229595
0,0,0,0,18,98.38,100,1539870229595
37,0,0,0,2,98.42,26,1539870229595
37,0,0,0,2,98.42,1,1539870229596
37,0,0,0,7,98.45,1,1539870229596
14,41,0,0,10,98.46,100,1539870230876
0,0,0,0,10,98.46,200,1539870230877
37,0,0,0,10,98.46,5,1539870230877
0,0,0,0,12,98.46,100,1539870230877
37,0,0,0,11,98.46,70,1539870230877
0,0,0,0,12,98.46,100,1539870230877
37,0,0,0,7,98.46,70,1539870230877
0,0,0,0,18,98.46,100,1539870230877
37,0,0,0,10,98.46,70,1539870230877
37,0,0,0,18,98.46,70,1539870230877
37,0,0,0,8,98.46,70,1539870230877
37,0,0,0,19,98.46,70,1539870230877
37,0,0,0,8,98.46,10,1539870230877
0,0,0,0,12,98.49,100,1539870230881
37,0,0,0,10,98.42,15,1539870230916
0,0,0,0,4,98.5,100,1539870231206
0,0,0,0,4,98.4551,215,1539870234254
37,0,0,0,10,98.5,58,1539870234584
0,0,0,0,10,98.5,105,1539870236894
14,37,41,0,10,98.5,37,1539870236894
14,41,0,0,11,98.5,100,1539870236894
14,37,41,0,12,98.5,23,1539870236894
14,37,41,0,12,98.51,84,1539870236894
0,0,0,0,2,98.57,100,1539870236895
0,0,0,0,11,98.59,500,1539870236896
14,41,0,0,10,98.61,100,1539870236897
0,0,0,0,12,98.59,100,1539870236897
0,0,0,0,12,98.59,100,1539870236897
0,0,0,0,15,98.59,300,1539870236897
0,0,0,0,10,98.6,100,1539870236917
0,0,0,0,4,98.59,100,1539870237009
0,0,0,0,4,98.59,100,1539870237011
0,0,0,0,10,98.6,100,1539870237012
0,0,0,0,10,98.59,100,1539870237012
0,0,0,0,10,98.59,300,1539870237012
14,41,0,0,18,98.55,100,1539870237013
0,0,0,0,4,98.59,200,1539870237076
0,0,0,0,4,98.64,100,1539870239191
0,0,0,0,4,98.64,200,1539870240197
0,0,0,0,4,98.64,100,1539870240279
37,0,0,0,10,98.64,65,1539870240293
14,37,41,0,10,98.5,10,1539870242822
14,37,41,0,12,98.5,90,1539870242822
14,37,41,0,10,98.48,10,1539870242830
14,37,41,0,12,98.49,40,1539870242830
0,0,0,0,4,98.62,100,1539870243848
37,0,0,0,4,98.4539,46,1539870248552
0,0,0,0,4,98.62,100,1539870254236
37,0,0,0,4,98.6,10,1539870254580
0,0,0,0,4,98.62,100,1539870260156
0,0,0,0,10,98.59,100,1539870276724
0,0,0,0,4,98.546,100,1539870288055
0,0,0,0,12,98.54,100,1539870292690
14,41,0,0,18,98.49,100,1539870292690
0,0,0,0,11,98.56,100,1539870292708
0,0,0,0,10,98.58,200,1539870294776
14,37,41,0,10,98.6,73,1539870294776
14,37,41,0,10,98.6,54,1539870294776
14,41,0,0,10,98.6,200,1539870294776
0,0,0,0,11,98.61,100,1539870297056
0,0,0,0,10,98.61,100,1539870297056
14,37,41,0,10,98.61,46,1539870297056
14,37,41,0,10,98.63,63,1539870297056
14,37,41,0,2,98.62,11,1539870297057
37,0,0,0,10,98.59,10,1539870300894
14,41,0,0,18,98.56,100,1539870300894
14,37,41,0,10,98.63,2,1539870306124
37,0,0,0,10,98.63,10,1539870314462
37,0,0,0,10,98.63,12,1539870314462
37,0,0,0,10,98.63,13,1539870314462
0,0,0,0,10,98.68,100,1539870316116
0,0,0,0,12,98.68,100,1539870316116
0,0,0,0,12,98.69,100,1539870316116
14,41,0,0,12,98.69,100,1539870316121
37,0,0,0,12,98.69,3,1539870316125
14,41,0,0,19,98.7,100,1539870316125
0,0,0,0,4,98.71,100,1539870316266
14,41,0,0,11,98.71,100,1539870321061
0,0,0,0,4,98.7,100,1539870321064
0,0,0,0,10,98.7,100,1539870321270
37,0,0,0,11,98.72,88,1539870322764
0,0,0,0,12,98.7,100,1539870322764
37,0,0,0,19,98.72,88,1539870322764
14,37,41,0,12,98.72,10,1539870322783
14,37,41,0,12,98.73,90,1539870322783
37,0,0,0,12,98.7,10,1539870322784
0,0,0,0,10,98.66,100,1539870322784
0,0,0,0,4,98.74,100,1539870322808
0,0,0,0,4,98.73,130,1539870325634
0,0,0,0,10,98.72,200,1539870346271
0,0,0,0,10,98.74,100,1539870346271
0,0,0,0,4,98.665,300,1539870346273
37,0,0,0,12,98.71,10,1539870346274
14,41,0,0,10,98.72,100,1539870346274
37,0,0,0,12,98.73,10,1539870346274
14,37,41,0,10,98.72,60,1539870346275
14,37,41,0,10,98.73,40,1539870346275
0,0,0,0,12,98.73,100,1539870346280
14,41,0,0,10,98.73,100,1539870346285
37,0,0,0,10,98.74,78,1539870346285
0,0,0,0,11,98.73,100,1539870346377
14,41,0,0,10,98.74,100,1539870346409
0,0,0,0,11,98.75,100,1539870346530
0,0,0,0,11,98.75,400,1539870346530
14,37,41,0,10,98.74,22,1539870346531
14,37,41,0,10,98.75,78,1539870346531
14,41,0,0,10,98.75,122,1539870346531
14,41,0,0,12,98.75,100,1539870346531
0,0,0,0,12,98.75,100,1539870346531
14,37,41,0,12,98.75,18,1539870346531
0,0,0,0,18,98.73,100,1539870346573
37,0,0,0,18,98.68,69,1539870346573
37,0,0,0,2,98.73,9,1539870346574
0,0,0,0,11,98.76,100,1539870353370
0,0,0,0,8,98.76,100,1539870353371
0,0,0,0,11,98.73,100,1539870353371
37,0,0,0,12,98.73,2,1539870353371
14,37,41,0,11,98.68,42,1539870353371
0,0,0,0,8,98.73,100,1539870353371
14,37,41,0,11,98.67,58,1539870353371
0,0,0,0,7,98.73,100,1539870353371
14,41,0,0,10,98.73,100,1539870353371
14,41,0,0,10,98.72,100,1539870353371
0,0,0,0,8,98.73,100,1539870353371
0,0,0,0,8,98.73,100,1539870353371
0,0,0,0,12,98.73,100,1539870353371
0,0,0,0,8,98.73,100,1539870353372
0,0,0,0,11,98.7,100,1539870353402
14,41,0,0,11,98.72,100,1539870354705
37,0,0,0,11,98.67,42,1539870355935
0,0,0,0,4,98.735,100,1539870359978
14,41,0,0,3,98.7,100,1539870362741
14,37,41,0,3,98.66,68,1539870362741
14,37,41,0,3,98.66,32,1539870362741
37,0,0,0,12,98.66,10,1539870362741
14,41,0,0,10,98.66,100,1539870362741
0,0,0,0,2,98.7,100,1539870362741
14,41,0,0,18,98.7,100,1539870362741
14,41,0,0,7,98.7,100,1539870362741
14,41,0,0,19,98.7,100,1539870362741
37,0,0,0,10,98.63,86,1539870371195
0,0,0,0,4,98.68,300,1539870371197
0,0,0,0,15,98.68,100,1539870372780
0,0,0,0,19,98.72,100,1539870381466
0,0,0,0,10,98.72,100,1539870381466
0,0,0,0,10,98.73,100,1539870381466
37,0,0,0,4,98.6999,1,1539870381721
14,41,0,0,10,98.73,100,1539870382242
14,41,0,0,19,98.73,100,1539870382242
14,37,41,0,10,98.74,53,1539870382242
14,41,0,0,2,98.73,100,1539870382242
14,41,0,0,12,98.73,100,1539870382242
14,37,41,0,10,98.74,47,1539870382242
0,0,0,0,19,98.73,100,1539870382242
0,0,0,0,2,98.74,100,1539870382243
0,0,0,0,12,98.74,100,1539870382243
0,0,0,0,12,98.74,100,1539870382243
0,0,0,0,2,98.74,100,1539870382243
0,0,0,0,12,98.74,100,1539870382243
14,37,41,0,10,98.75,30,1539870382243
14,37,41,0,10,98.75,26,1539870382243
14,37,41,0,10,98.75,37,1539870382243
0,0,0,0,4,98.73,100,1539870382243
14,37,41,0,10,98.75,7,1539870382243
14,37,41,0,12,98.76,75,1539870382243
0,0,0,0,4,98.74,100,1539870382244
0,0,0,0,15,98.745,100,1539870382245
14,41,0,0,10,98.8,100,1539870382247
0,0,0,0,4,98.75,100,1539870382248
37,0,0,0,18,98.73,5,1539870382254
0,0,0,0,4,98.73,100,1539870382471
0,0,0,0,11,98.81,100,1539870383330
14,41,0,0,10,98.81,100,1539870383330
0,0,0,0,15,98.87,100,1539870386739
0,0,0,0,10,98.87,100,1539870390233
14,41,0,0,12,98.87,100,1539870390233
14,41,0,0,2,98.86,100,1539870390233
14,41,0,0,19,98.87,100,1539870390233
14,41,0,0,2,98.86,114,1539870390233
0,0,0,0,12,98.87,100,1539870390233
37,0,0,0,2,98.86,86,1539870390233
0,0,0,0,19,98.87,100,1539870390234
14,41,0,0,10,98.92,100,1539870390865
0,0,0,0,11,98.92,100,1539870392181
14,37,41,0,10,98.94,50,1539870392181
14,41,0,0,11,98.93,100,1539870393790
14,41,0,0,11,98.84,100,1539870393794
14,41,0,0,12,98.855,100,1539870393794
14,41,0,0,12,98.83,100,1539870393794
0,0,0,0,4,98.935,100,1539870394447
0,0,0,0,4,98.855,100,1539870399658
37,0,0,0,4,98.9307,10,1539870404447
37,0,0,0,10,98.85,10,1539870406051
14,41,0,0,8,98.855,100,1539870406051
0,0,0,0,4,98.94,200,1539870406460
0,0,0,0,4,98.925,100,1539870406464
0,0,0,0,4,98.935,200,1539870406464
14,37,41,0,10,98.91,45,1539870406764
14,41,0,0,10,98.92,100,1539870408783
37,0,0,0,10,98.93,7,1539870413161
14,41,0,0,11,98.92,100,1539870414567
0,0,0,0,4,98.94,200,1539870416388
0,0,0,0,4,98.94,400,1539870416428
37,0,0,0,10,98.87,10,1539870417600
0,0,0,0,2,98.855,100,1539870417605
14,37,41,0,10,98.87,10,1539870417610
14,37,41,0,10,98.85,10,1539870417610
14,41,0,0,11,98.855,100,1539870417610
14,41,0,0,11,98.82,100,1539870417611
14,41,0,0,11,98.81,100,1539870417611
14,41,0,0,11,98.81,100,1539870417611
14,37,41,0,11,98.8,80,1539870417611
0,0,0,0,4,98.895,100,1539870417611
0,0,0,0,4,98.94,100,1539870417624
37,0,0,0,12,98.78,80,1539870417625
37,0,0,0,11,98.79,4,1539870417626
0,0,0,0,4,98.855,100,1539870418255
0,0,0,0,4,98.92,100,1539870418366
0,0,0,0,4,98.915,100,1539870418383
0,0,0,0,4,98.925,100,1539870418384
0,0,0,0,4,98.93,100,1539870418444
0,0,0,0,4,98.935,100,1539870418493
37,0,0,0,4,98.77,35,1539870419441
14,41,0,0,10,98.89,100,1539870421797
14,37,41,0,10,98.93,90,1539870421797
14,37,41,0,2,98.89,10,1539870421797
0,0,0,0,4,98.855,100,1539870422687
37,0,0,0,4,98.92,1,1539870422706
0,0,0,0,4,98.81,100,1539870425162
0,0,0,0,4,98.8,100,1539870425162
0,0,0,0,4,98.855,100,1539870433800
0,0,0,0,4,98.94,400,1539870438397
0,0,0,0,4,98.92,100,1539870438404
14,41,0,0,11,98.94,100,1539870438409
14,41,0,0,11,98.94,100,1539870438409
14,41,0,0,11,98.94,100,1539870438410
0,0,0,0,12,98.94,100,1539870438410
14,37,41,0,2,98.94,10,1539870438410
14,41,0,0,10,98.94,400,1539870438410
14,41,0,0,10,98.94,100,1539870438410
14,41,0,0,8,98.94,100,1539870438410
14,41,0,0,19,98.94,100,1539870438410
14,41,0,0,8,98.94,100,1539870438410
14,41,0,0,19,98.94,100,1539870438410
14,41,0,0,11,98.95,100,1539870438410
0,0,0,0,18,98.88,100,1539870438410
14,41,0,0,10,98.94,400,1539870438410
14,41,0,0,10,98.94,250,1539870438410
14,37,41,0,11,98.95,20,1539870438410
14,41,0,0,10,98.94,150,1539870438410
14,37,41,0,11,98.95,74,1539870438410
0,0,0,0,11,98.95,100,1539870438410
0,0,0,0,11,98.95,206,1539870438410
37,0,0,0,7,98.92,54,1539870438411
37,0,0,0,15,98.92,60,1539870438411
0,0,0,0,4,98.94,100,1539870438411
37,0,0,0,15,98.94,12,1539870438412
37,0,0,0,15,98.94,9,1539870438413
14,41,0,0,8,98.92,100,1539870438415
14,41,0,0,12,99.01,100,1539870438415
0,0,0,0,12,99.01,100,1539870438415
14,41,0,0,12,99.01,176,1539870438416
37,0,0,0,8,99.01,1,1539870438416
0,0,0,0,4,98.95,100,1539870438421
0,0,0,0,4,99.005,200,1539870440377
0,0,0,0,4,98.995,100,1539870440410
0,0,0,0,4,99.01,100,1539870442525
0,0,0,0,4,99.01,100,1539870444479
0,0,0,0,4,99.01,160,1539870445772
0,0,0,0,4,99.01,400,1539870451403
0,0,0,0,4,99.01,200,1539870451432
0,0,0,0,7,99,100,1539870451629
0,0,0,0,7,99.01,100,1539870451629
0,0,0,0,10,98.99,100,1539870451629
0,0,0,0,10,99.01,200,1539870451629
37,0,0,0,12,99.01,18,1539870451632
37,0,0,0,12,99.01,82,1539870451632
0,0,0,0,12,98.93,100,1539870451736
0,0,0,0,4,98.915,100,1539870453435
37,0,0,0,4,98.915,36,1539870453438
37,0,0,0,12,98.91,45,1539870453864
0,0,0,0,4,99.01,200,1539870454484
0,0,0,0,10,99.01,200,1539870455896
14,41,0,0,7,99.01,100,1539870460665
0,0,0,0,10,98.915,100,1539870468818
0,0,0,0,10,98.915,200,1539870473238
0,0,0,0,10,98.915,200,1539870473240
0,0,0,0,4,98.9,160,1539870473562
0,0,0,0,4,98.905,200,1539870476238
0,0,0,0,10,98.99,100,1539870476983
0,0,0,0,15,98.905,100,1539870476984
0,0,0,0,11,98.97,100,1539870476986
0,0,0,0,4,98.905,100,1539870476988
0,0,0,0,4,98.895,100,1539870476988
0,0,0,0,10,98.895,100,1539870479938
0,0,0,0,11,98.97,100,1539870480521
0,0,0,0,10,98.895,200,1539870480521
37,0,0,0,11,98.89,50,1539870480635
37,0,0,0,11,98.85,85,1539870480635
37,0,0,0,19,98.85,7,1539870480636
0,0,0,0,2,98.96,100,1539870483988
0,0,0,0,12,98.97,100,1539870484926
0,0,0,0,10,98.97,100,1539870485285
37,0,0,0,10,98.97,87,1539870485285
0,0,0,0,10,98.97,113,1539870485287
0,0,0,0,4,98.93,200,1539870485289
0,0,0,0,8,99,100,1539870487227
14,37,41,0,12,98.98,87,1539870487227
0,0,0,0,10,98.97,100,1539870487339
0,0,0,0,4,99.01,100,1539870487345
0,0,0,0,4,98.97,100,1539870487357
0,0,0,0,4,98.97,100,1539870487362
0,0,0,0,4,99.01,100,1539870487362
0,0,0,0,4,99.01,100,1539870487366
0,0,0,0,4,98.97,100,1539870487379
0,0,0,0,4,99.01,100,1539870487379
0,0,0,0,4,98.97,100,1539870487379
0,0,0,0,4,99.01,100,1539870487380
0,0,0,0,10,99.01,100,1539870487512
0,0,0,0,4,98.97,200,1539870489242
0,0,0,0,4,98.93,100,1539870489757
0,0,0,0,11,98.93,100,1539870491369
0,0,0,0,11,98.93,100,1539870491369
0,0,0,0,10,98.93,101,1539870491369
14,41,0,0,10,98.93,100,1539870491369
14,37,41,0,1,98.91,99,1539870491369
14,37,41,0,1,98.91,1,1539870491369
14,41,0,0,19,98.93,100,1539870491369
14,41,0,0,12,98.93,100,1539870491369
14,41,0,0,2,98.93,100,1539870491369
0,0,0,0,4,98.97,100,1539870491427
37,0,0,0,4,98.9366,15,1539870492695
14,37,41,0,12,98.89,1,1539870492702
37,0,0,0,12,98.89,99,1539870498920
14,41,0,0,10,98.89,100,1539870498920
0,0,0,0,12,98.89,100,1539870498920
14,41,0,0,10,98.89,300,1539870498920
14,41,0,0,2,98.89,100,1539870498920
14,37,41,0,11,98.86,68,1539870498920
0,0,0,0,12,98.89,200,1539870498920
0,0,0,0,19,98.89,100,1539870498920
14,37,41,0,11,98.86,74,1539870498921
0,0,0,0,12,98.89,100,1539870498921
14,37,41,0,11,98.86,58,1539870498921
0,0,0,0,10,98.82,100,1539870500457
14,41,0,0,11,98.82,100,1539870500457
14,41,0,0,11,98.82,100,1539870500457
14,37,41,0,19,98.8,92,1539870500458
14,41,0,0,10,98.78,100,1539870500852
14,37,41,0,19,98.8,8,1539870500852
14,37,41,0,8,98.8,42,1539870500852
14,37,41,0,8,98.8,58,1539870500852
14,37,41,0,8,98.79,32,1539870500852
14,37,41,0,8,98.79,68,1539870500852
14,41,0,0,8,98.78,100,1539870500853
37,0,0,0,15,98.78,42,1539870500853
37,0,0,0,15,98.78,58,1539870500853
0,0,0,0,4,98.83,100,1539870500902
0,0,0,0,4,98.83,100,1539870500906
0,0,0,0,10,98.79,100,1539870500929
0,0,0,0,4,98.84,19064,1539870501024
0,0,0,0,4,98.835,100,1539870501051
0,0,0,0,15,98.78,100,1539870501117
0,0,0,0,10,98.78,100,1539870502282
14,41,0,0,1,98.78,100,1539870502287
14,41,0,0,8,98.77,100,1539870502860
0,0,0,0,4,98.82,100,1539870502872
37,0,0,0,11,98.56,50,1539870502974
37,0,0,0,11,98.56,50,1539870502974
0,0,0,0,10,98.56,100,1539870502974
14,41,0,0,2,98.59,100,1539870502974
14,41,0,0,12,98.57,100,1539870502975
14,41,0,0,2,98.59,100,1539870502975
37,0,0,0,12,98.54,62,1539870502975
37,0,0,0,12,98.54,38,1539870502975
14,41,0,0,18,98.54,100,1539870502975
0,0,0,0,18,98.54,105,1539870502975
0,0,0,0,4,98.17,300,1539870505241
0,0,0,0,12,98.29,100,1539870505899
0,0,0,0,11,98.29,100,1539870509288
0,0,0,0,12,98.29,100,1539870509289
0,0,0,0,12,98.29,100,1539870509289
0,0,0,0,12,98.29,100,1539870509289
0,0,0,0,15,98.29,100,1539870509289
14,41,0,0,10,98.3,100,1539870509289
14,41,0,0,10,98.29,100,1539870509289
14,37,41,0,2,98.3,13,1539870509289
0,0,0,0,12,98.3,100,1539870509291
0,0,0,0,4,98.19,100,1539870514602
0,0,0,0,4,98.275,700,1539870520241
0,0,0,0,11,98.36,100,1539870520259
0,0,0,0,11,98.36,100,1539870520259
0,0,0,0,4,98.275,100,1539870520265
37,0,0,0,4,98.34,56,1539870521482
14,41,0,0,11,98.27,100,1539870525916
0,0,0,0,4,98.18,100,1539870529047
7,37,41,0,4,98.031,30,1539870529334
14,41,0,0,10,98.23,100,1539870548881
0,0,0,0,11,98.18,100,1539870548888
0,0,0,0,10,98.27,200,1539870551125
0,0,0,0,10,98.24,100,1539870557748
0,0,0,0,15,98.16,100,1539870565503
0,0,0,0,4,98.07,100,1539870572772
14,37,41,0,10,98.2,90,1539870580443
14,37,41,0,10,98.22,10,1539870580443
14,41,0,0,10,98.22,295,1539870581227
14,37,41,0,10,98.22,87,1539870581227
14,41,0,0,10,98.22,147,1539870581227
14,37,41,0,10,98.22,61,1539870581228
14,37,41,0,8,98.23,39,1539870581228
14,37,41,0,8,98.23,61,1539870581228
0,0,0,0,8,98.23,100,1539870581228
14,41,0,0,10,98.24,200,1539870581228
14,41,0,0,10,98.24,138,1539870581228
37,0,0,0,2,98.17,45,1539870581229
14,37,41,0,10,98.24,62,1539870581229
37,0,0,0,7,98.17,28,1539870581229
14,37,41,0,12,98.26,32,1539870581229
37,0,0,0,7,98.17,2,1539870581229
37,0,0,0,4,98.19,50,1539870581233
0,0,0,0,4,98.22,100,1539870581239
0,0,0,0,12,98.18,100,1539870581314
0,0,0,0,12,98.16,100,1539870581738
0,0,0,0,10,98.2,100,1539870583278
14,41,0,0,8,98.2,100,1539870583279
0,0,0,0,4,98.23,100,1539870584447
14,41,0,0,12,98.23,100,1539870585641
0,0,0,0,10,98.26,200,1539870586836
37,0,0,0,2,98.26,28,1539870586836
14,41,0,0,10,98.26,100,1539870586836
14,41,0,0,10,98.3,100,1539870587235
0,0,0,0,15,98.3,200,1539870588410
0,0,0,0,4,98.37,200,1539870589489
14,41,0,0,10,98.37,100,1539870592234
0,0,0,0,10,98.39,100,1539870592288
14,41,0,0,19,98.32,100,1539870592289
14,41,0,0,19,98.35,100,1539870592289
0,0,0,0,4,98.375,100,1539870593616
0,0,0,0,15,98.445,200,1539870593836
37,0,0,0,10,98.39,85,1539870593855
37,0,0,0,10,98.39,5,1539870593856
37,0,0,0,12,98.42,18,1539870594054
14,41,0,0,11,98.44,100,1539870599117
14,41,0,0,10,98.44,100,1539870600835
0,0,0,0,4,98.44,100,1539870601075
37,0,0,0,4,98.4677,47,1539870601956
0,0,0,0,18,98.48,100,1539870605765
0,0,0,0,10,98.48,200,1539870605766
14,37,41,0,10,98.5,10,1539870605766
0,0,0,0,12,98.51,100,1539870606168
14,41,0,0,10,98.49,100,1539870611545
14,41,0,0,11,98.49,100,1539870614019
0,0,0,0,10,98.5,200,1539870614020
14,41,0,0,2,98.49,100,1539870614021
0,0,0,0,15,98.435,100,1539870614022
0,0,0,0,4,98.5,190,1539870625857
0,0,0,0,10,98.4,100,1539870632600
37,0,0,0,10,98.39,36,1539870632600
37,0,0,0,10,98.39,7,1539870632601
0,0,0,0,4,98.44,200,1539870635453
14,41,0,0,11,98.44,100,1539870641138
0,0,0,0,10,98.38,100,1539870641139
14,37,41,0,11,98.3,42,1539870641139
14,41,0,0,10,98.37,100,1539870641139
14,41,0,0,10,98.32,100,1539870641139
14,41,0,0,19,98.34,100,1539870641139
0,0,0,0,8,98.42,100,1539870641139
37,0,0,0,11,98.3,58,1539870641140
37,0,0,0,10,98.35,90,1539870641140
0,0,0,0,10,98.35,110,1539870641142
0,0,0,0,10,98.37,100,1539870641142
0,0,0,0,19,98.37,100,1539870641143
37,0,0,0,19,98.38,90,1539870641143
0,0,0,0,8,98.38,100,1539870641146
0,0,0,0,4,98.11,1330,1539870645612
0,0,0,0,10,98.28,100,1539870645712
0,0,0,0,10,98.18,100,1539870645713
37,0,0,0,10,98.17,27,1539870645713
37,0,0,0,11,98.16,7,1539870645713
37,0,0,0,4,98.22,4,1539870645714
0,0,0,0,10,98.28,100,1539870645734
37,0,0,0,4,98.2534,26,1539870652535
0,0,0,0,4,98.215,100,1539870655231
0,0,0,0,4,98.215,3000,1539870656915
0,0,0,0,4,98.11,300,1539870656922
0,0,0,0,4,98.15,100,1539870656923
0,0,0,0,4,98.13,100,1539870656924
0,0,0,0,4,98.13,100,1539870656924
0,0,0,0,4,98.12,100,1539870656925
37,0,0,0,4,98.11,50,1539870656925
0,0,0,0,4,98.12,100,1539870656925
0,0,0,0,4,98.11,300,1539870656926
37,0,0,0,4,98.11,50,1539870656926
0,0,0,0,4,98.11,300,1539870656927
14,41,0,0,19,98.09,100,1539870656928
14,41,0,0,11,98.14,100,1539870656928
14,41,0,0,12,98.11,100,1539870656928
14,41,0,0,12,98.11,100,1539870656928
14,41,0,0,2,98.15,100,1539870656928
14,41,0,0,19,98.13,100,1539870656928
14,41,0,0,10,98.11,100,1539870656928
14,41,0,0,12,98.1,100,1539870656928
14,41,0,0,8,98.12,100,1539870656928
14,41,0,0,10,98.07,100,1539870656928
0,0,0,0,19,98.03,100,1539870656930
14,41,0,0,10,98.1,100,1539870656937
14,37,41,0,10,98.11,90,1539870656937
14,37,41,0,7,98.09,10,1539870656937
14,41,0,0,17,98.2,100,1539870656937
0,0,0,0,15,98.11,100,1539870656937
37,0,0,0,10,98.11,10,1539870656942
0,0,0,0,10,98.13,100,1539870656942
37,0,0,0,10,98.15,90,1539870656942
0,0,0,0,15,98.11,100,1539870656942
0,0,0,0,12,98.09,100,1539870657214
0,0,0,0,12,98.12,100,1539870657214
0,0,0,0,12,98.17,100,1539870657214
0,0,0,0,12,98.18,100,1539870657214
0,0,0,0,10,98.13,100,1539870657251
0,0,0,0,18,98.04,100,1539870657335
0,0,0,0,4,98.02,100,1539870657688
37,0,0,0,4,98.02,66,1539870657703
0,0,0,0,4,98.1054,300,1539870660092
0,0,0,0,4,98.19,100,1539870662068
37,0,0,0,4,98.185,32,1539870662397
0,0,0,0,12,98.16,100,1539870663180
0,0,0,0,12,98.19,100,1539870663180
0,0,0,0,2,98.19,100,1539870664201
0,0,0,0,4,98.19,100,1539870668844
0,0,0,0,4,98.19,100,1539870669253
0,0,0,0,4,98.19,200,1539870672385
14,41,0,0,12,98.19,100,1539870672389
0,0,0,0,4,98.1,200,1539870672389
0,0,0,0,4,98.19,200,1539870672394
0,0,0,0,4,98.19,200,1539870672398
0,0,0,0,4,98.19,200,1539870672400
0,0,0,0,4,98.19,200,1539870672402
0,0,0,0,4,98.19,200,1539870672404
0,0,0,0,4,98.19,200,1539870672406
0,0,0,0,4,98.19,200,1539870672408
0,0,0,0,4,98.19,500,1539870672409
0,0,0,0,12,98.19,100,1539870672427
37,0,0,0,10,98.18,34,1539870672427
0,0,0,0,2,98.19,100,1539870672427
0,0,0,0,12,98.19,100,1539870672427
0,0,0,0,12,98.19,100,1539870672427
14,41,0,0,10,98.2,293,1539870672428
14,41,0,0,10,98.2,100,1539870672428
14,37,41,0,8,98.2,10,1539870672428
14,37,41,0,10,98.21,61,1539870672428
14,37,41,0,12,98.2,34,1539870672428
14,37,41,0,12,98.2,44,1539870672428
0,0,0,0,4,98.19,100,1539870672428
14,41,0,0,12,98.21,100,1539870672428
14,37,41,0,10,98.21,39,1539870672428
0,0,0,0,10,98.32,100,1539870672440
0,0,0,0,11,98.33,100,1539870672440
0,0,0,0,12,98.33,100,1539870672440
0,0,0,0,12,98.34,100,1539870672440
0,0,0,0,12,98.34,100,1539870672440
0,0,0,0,19,98.33,100,1539870672440
14,41,0,0,11,98.34,100,1539870672444
14,41,0,0,10,98.34,100,1539870672444
14,41,0,0,12,98.34,100,1539870672444
0,0,0,0,4,98.34,100,1539870672445
37,0,0,0,4,98.175,60,1539870672733
0,0,0,0,4,98.18,100,1539870672738
37,0,0,0,4,98.2158,1,1539870700749
0,0,0,0,4,98.295,100,1539870702481
14,41,0,0,11,98.29,100,1539870702947
14,41,0,0,11,98.29,100,1539870704118
0,0,0,0,4,98.4,100,1539870715964
0,0,0,0,4,98.4,304,1539870720151
0,0,0,0,4,98.4,100,1539870726296
0,0,0,0,4,98.24,100,1539870729205
0,0,0,0,7,98.32,100,1539870729208
0,0,0,0,12,98.315,100,1539870745541
0,0,0,0,4,98.39,140,1539870745750
0,0,0,0,15,98.31,200,1539870746720
0,0,0,0,11,98.38,100,1539870750817
0,0,0,0,10,98.38,100,1539870750817
14,41,0,0,7,98.38,100,1539870750817
14,41,0,0,12,98.345,100,1539870750817
14,41,0,0,10,98.39,100,1539870752461
14,37,41,0,18,98.39,86,1539870752461
0,0,0,0,10,98.4,300,1539870753274
14,41,0,0,12,98.36,100,1539870753275
14,37,41,0,12,98.41,4,1539870753275
14,37,41,0,12,98.41,16,1539870753275
0,0,0,0,2,98.42,200,1539870766253
14,41,0,0,12,98.42,100,1539870766253
14,41,0,0,10,98.42,200,1539870766253
14,37,41,0,10,98.44,50,1539870766267
0,0,0,0,12,98.46,100,1539870766276
14,37,41,0,8,98.46,50,1539870766276
0,0,0,0,12,98.46,100,1539870766276
14,41,0,0,11,98.46,100,1539870769341
14,41,0,0,10,98.46,100,1539870769342
37,0,0,0,10,98.46,30,1539870769343
37,0,0,0,10,98.46,70,1539870769343
0,0,0,0,10,98.46,100,1539870770721
37,0,0,0,10,98.45,10,1539870770874
37,0,0,0,10,98.46,90,1539870770874
0,0,0,0,4,98.4209,800,1539870772336
0,0,0,0,10,98.48,150,1539870772356
0,0,0,0,2,98.48,100,1539870772356
10,2,41,0,4,98.6185,200,1539870773169
0,0,0,0,10,98.49,200,1539870776311
0,0,0,0,12,98.49,100,1539870776311
14,41,0,0,2,98.49,100,1539870776311
14,37,41,0,11,98.53,26,1539870776311
14,37,41,0,10,98.5,50,1539870776311
14,37,41,0,10,98.5,37,1539870776311
14,37,41,0,10,98.5,13,1539870776311
14,37,41,0,11,98.53,15,1539870776312
0,0,0,0,4,98.49,100,1539870776313
0,0,0,0,10,98.57,100,1539870777695
0,0,0,0,12,98.58,100,1539870777740
37,0,0,0,12,98.62,10,1539870781566
0,0,0,0,11,98.68,100,1539870781583
0,0,0,0,11,98.68,100,1539870781583
0,0,0,0,12,98.68,100,1539870781583
0,0,0,0,11,98.68,100,1539870781593
0,0,0,0,4,98.68,200,1539870781767
0,0,0,0,10,98.71,100,1539870782929
0,0,0,0,10,98.71,100,1539870783712
14,41,0,0,12,98.71,100,1539870783713
0,0,0,0,19,98.72,100,1539870783716
0,0,0,0,4,98.7,100,1539870783932
0,0,0,0,4,98.705,100,1539870783952
14,41,0,0,11,98.7,100,1539870788085
0,0,0,0,4,98.72,300,1539870788216
14,41,0,0,19,98.76,100,1539870788729
37,0,0,0,2,98.67,4,1539870803166
0,0,0,0,10,98.72,100,1539870803519
14,41,0,0,11,98.72,100,1539870809162
0,0,0,0,15,98.72,100,1539870810824
0,0,0,0,4,98.72,400,1539870810828
0,0,0,0,10,98.72,100,1539870810843
14,37,41,0,10,98.67,21,1539870816024
14,37,41,0,10,98.67,74,1539870816024
14,37,41,0,10,98.67,73,1539870816024
14,37,41,0,10,98.67,50,1539870816024
14,37,41,0,10,98.67,18,1539870816024
0,0,0,0,8,98.71,100,1539870816025
14,41,0,0,8,98.67,100,1539870816025
14,37,41,0,8,98.67,69,1539870816025
0,0,0,0,8,98.67,100,1539870816025
0,0,0,0,8,98.67,100,1539870816025
0,0,0,0,12,98.72,100,1539870816025
14,41,0,0,8,98.67,100,1539870816025
0,0,0,0,12,98.67,100,1539870816025
37,0,0,0,8,98.67,31,1539870816025
14,41,0,0,2,98.66,100,1539870816025
0,0,0,0,19,98.66,100,1539870816032
14,41,0,0,10,98.59,100,1539870816072
0,0,0,0,11,98.58,100,1539870816073
0,0,0,0,12,98.57,100,1539870817540
0,0,0,0,19,98.56,100,1539870817540
0,0,0,0,19,98.55,100,1539870817540
14,41,0,0,10,98.56,100,1539870817561
0,0,0,0,4,98.61,100,1539870826430
37,0,0,0,4,98.61,30,1539870826456
0,0,0,0,10,98.57,100,1539870830488
0,0,0,0,4,98.525,100,1539870832062
0,0,0,0,10,98.57,100,1539870832673
14,41,0,0,10,98.57,100,1539870832673
14,41,0,0,10,98.58,100,1539870832673
14,41,0,0,10,98.58,100,1539870832673
14,41,0,0,8,98.58,168,1539870832673
14,37,41,0,8,98.58,50,1539870832673
14,37,41,0,8,98.58,32,1539870832673
14,41,0,0,8,98.58,118,1539870832673
14,37,41,0,12,98.58,50,1539870832673
14,37,41,0,12,98.58,42,1539870832673
14,41,0,0,8,98.58,118,1539870832673
14,37,41,0,12,98.58,19,1539870832674
0,0,0,0,8,98.58,118,1539870832674
37,0,0,0,8,98.58,82,1539870832674
14,41,0,0,8,98.58,118,1539870832674
14,41,0,0,8,98.58,380,1539870832674
0,0,0,0,8,98.58,100,1539870832674
0,0,0,0,8,98.58,100,1539870832675
0,0,0,0,4,98.57,100,1539870832675
0,0,0,0,8,98.58,116,1539870832675
0,0,0,0,4,98.57,100,1539870832676
0,0,0,0,4,98.59,200,1539870832681
14,41,0,0,12,98.58,100,1539870836652
14,41,0,0,12,98.59,100,1539870837345
14,41,0,0,2,98.59,100,1539870837345
14,41,0,0,10,98.59,100,1539870837345
0,0,0,0,4,98.59,100,1539870837347
0,0,0,0,12,98.57,100,1539870837502
0,0,0,0,12,98.58,100,1539870840587
37,0,0,0,18,98.54,10,1539870840587
37,0,0,0,19,98.54,10,1539870840587
37,0,0,0,7,98.54,10,1539870840587
37,0,0,0,8,98.54,10,1539870840588
37,0,0,0,12,98.56,10,1539870840588
37,0,0,0,7,98.54,10,1539870840588
37,0,0,0,19,98.54,10,1539870840588
37,0,0,0,8,98.54,10,1539870840588
37,0,0,0,12,98.54,10,1539870840588
37,0,0,0,12,98.54,10,1539870840588
0,0,0,0,12,98.51,100,1539870840907
0,0,0,0,11,98.51,100,1539870843098
37,0,0,0,12,98.51,20,1539870843099
14,41,0,0,11,98.5,100,1539870843099
14,41,0,0,11,98.5,100,1539870843099
37,0,0,0,12,98.5,80,1539870843099
14,41,0,0,18,98.5,100,1539870843099
37,0,0,0,12,98.5,20,1539870843099
14,41,0,0,10,98.5,100,1539870843099
0,0,0,0,4,98.5,100,1539870843100
0,0,0,0,4,98.545,300,1539870843100
0,0,0,0,10,98.52,100,1539870843117
0,0,0,0,10,98.53,200,1539870843117
0,0,0,0,10,98.54,100,1539870843117
0,0,0,0,10,98.55,100,1539870843118
0,0,0,0,10,98.56,100,1539870843118
14,37,41,0,12,98.5,20,1539870843118
0,0,0,0,18,98.55,100,1539870843120
14,41,0,0,12,98.46,100,1539870846494
14,41,0,0,12,98.45,100,1539870846494
0,0,0,0,10,98.45,100,1539870846494
14,41,0,0,12,98.4,100,1539870846495
14,41,0,0,11,98.38,100,1539870848311
0,0,0,0,12,98.38,100,1539870848311
0,0,0,0,10,98.39,100,1539870848311
14,41,0,0,8,98.38,100,1539870848311
14,41,0,0,10,98.38,100,1539870848311
14,41,0,0,19,98.38,100,1539870848311
0,0,0,0,12,98.37,100,1539870848311
14,41,0,0,2,98.38,100,1539870848311
0,0,0,0,8,98.35,100,1539870848311
0,0,0,0,12,98.32,100,1539870848312
0,0,0,0,12,98.31,100,1539870848312
0,0,0,0,4,98.4,100,1539870848312
0,0,0,0,4,98.38,100,1539870848313
0,0,0,0,10,98.28,100,1539870848331
0,0,0,0,15,98.27,100,1539870849853
0,0,0,0,10,98.26,100,1539870864198
0,0,0,0,10,98.27,100,1539870865390
0,0,0,0,8,98.26,100,1539870865390
0,0,0,0,11,98.26,100,1539870865442
0,0,0,0,12,98.19,100,1539870868266
0,0,0,0,11,98.18,100,1539870869835
37,0,0,0,12,98.18,10,1539870869835
0,0,0,0,11,98.18,100,1539870870398
0,0,0,0,11,98.18,100,1539870870398
0,0,0,0,12,98.18,300,1539870870398
37,0,0,0,10,98.18,42,1539870870398
14,37,41,0,12,98.18,90,1539870870398
37,0,0,0,10,98.18,58,1539870870398
14,41,0,0,12,98.18,400,1539870870398
0,0,0,0,12,98.18,400,1539870870399
14,41,0,0,12,98.18,100,1539870870399
14,41,0,0,12,98.18,100,1539870870399
0,0,0,0,12,98.18,162,1539870870400
14,41,0,0,12,98.18,138,1539870870538
0,0,0,0,12,98.18,100,1539870870538
0,0,0,0,12,98.18,300,1539870870538
14,41,0,0,12,98.18,100,1539870870538
14,41,0,0,12,98.18,100,1539870870538
14,41,0,0,12,98.18,200,1539870870538
0,0,0,0,4,98.2,200,1539870870547
0,0,0,0,10,98.19,100,1539870870554
0,0,0,0,10,98.2,200,1539870870556
0,0,0,0,10,98.26,300,1539870870556
0,0,0,0,11,98.16,100,1539870870693
37,0,0,0,19,98.24,70,1539870871004
0,0,0,0,11,98.15,100,1539870874722
0,0,0,0,10,98.24,100,1539870875227
14,41,0,0,19,98.24,100,1539870875227
14,41,0,0,7,98.24,100,1539870875227
14,41,0,0,12,98.24,100,1539870875227
0,0,0,0,10,98.2,100,1539870875943
0,0,0,0,10,98.25,500,1539870876337
14,41,0,0,10,98.26,100,1539870876337
14,37,41,0,10,98.27,11,1539870876337
14,37,41,0,10,98.27,89,1539870876337
14,41,0,0,12,98.26,100,1539870876337
14,41,0,0,2,98.26,100,1539870876337
0,0,0,0,4,98.25,100,1539870876337
14,41,0,0,19,98.27,100,1539870876337
14,41,0,0,8,98.27,100,1539870876337
37,0,0,0,12,98.3,54,1539870876338
37,0,0,0,12,98.3,35,1539870876338
0,0,0,0,12,98.31,100,1539870876338
0,0,0,0,11,98.36,100,1539870876357
0,0,0,0,19,98.42,100,1539870876370
0,0,0,0,19,98.42,100,1539870876370
14,41,0,0,12,98.38,100,1539870876371
37,0,0,0,19,98.42,78,1539870876371
37,0,0,0,19,98.42,22,1539870876371
14,41,0,0,12,98.43,100,1539870876371
0,0,0,0,12,98.43,100,1539870876371
14,41,0,0,19,98.44,100,1539870876371
14,41,0,0,10,98.44,100,1539870876371
14,37,41,0,12,98.44,63,1539870876372
14,41,0,0,12,98.44,100,1539870876372
0,0,0,0,12,98.44,100,1539870876372
37,0,0,0,10,98.48,25,1539870876382
37,0,0,0,19,98.48,25,1539870876382
0,0,0,0,19,98.55,100,1539870876383
14,37,41,0,8,98.48,25,1539870876383
37,0,0,0,12,98.48,25,1539870876383
0,0,0,0,4,98.55,100,1539870876384
0,0,0,0,10,98.6,100,1539870876396
14,41,0,0,12,98.6,100,1539870876396
0,0,0,0,19,98.66,100,1539870876408
37,0,0,0,19,98.66,76,1539870876408
14,41,0,0,19,98.55,100,1539870876408
14,41,0,0,19,98.54,100,1539870876408
0,0,0,0,18,98.65,100,1539870876409
14,37,41,0,2,98.61,10,1539870876411
37,0,0,0,19,98.66,90,1539870876425
0,0,0,0,19,98.67,100,1539870876425
0,0,0,0,10,98.77,100,1539870876942
0,0,0,0,4,98.77,200,1539870877123
0,0,0,0,4,98.75,100,1539870882668
0,0,0,0,2,98.61,100,1539870886109
0,0,0,0,2,98.61,100,1539870886110
0,0,0,0,2,98.6,100,1539870886110
0,0,0,0,2,98.54,700,1539870886110
14,41,0,0,7,98.59,100,1539870888163
37,0,0,0,4,98.6605,75,1539870897795
0,0,0,0,15,98.66,100,1539870912076
14,41,0,0,11,98.66,100,1539870912372
14,41,0,0,11,98.66,100,1539870914063
0,0,0,0,10,98.66,100,1539870915262
0,0,0,0,10,98.73,200,1539870940323
0,0,0,0,12,98.73,100,1539870940323
37,0,0,0,12,98.73,17,1539870940323
0,0,0,0,12,98.73,100,1539870940323
37,0,0,0,12,98.73,83,1539870940324
14,37,41,0,10,98.74,83,1539870940324
14,37,41,0,11,98.75,17,1539870940324
14,41,0,0,10,98.74,117,1539870940324
14,37,41,0,11,98.75,80,1539870940324
14,37,41,0,11,98.75,3,1539870940324
14,37,41,0,10,98.75,56,1539870940324
14,41,0,0,10,98.75,144,1539870940324
37,0,0,0,10,98.75,80,1539870940324
14,41,0,0,10,98.735,100,1539870940324
14,41,0,0,10,98.735,200,1539870940324
0,0,0,0,10,98.735,117,1539870940324
37,0,0,0,10,98.75,3,1539870940324
14,37,41,0,10,98.735,83,1539870940324
14,37,41,0,10,98.75,17,1539870940324
0,0,0,0,15,98.66,100,1539870940325
0,0,0,0,11,98.88,400,1539870940336
14,41,0,0,11,98.88,100,1539870940336
0,0,0,0,18,98.88,400,1539870940336
0,0,0,0,10,98.75,475,1539870940336
0,0,0,0,19,98.88,100,1539870940336
0,0,0,0,10,98.75,200,1539870940336
0,0,0,0,19,98.88,100,1539870940336
14,41,0,0,18,98.88,100,1539870940337
14,41,0,0,10,98.75,100,1539870940337
0,0,0,0,10,98.75,100,1539870940337
0,0,0,0,12,98.88,400,1539870940337
14,41,0,0,12,98.88,100,1539870940337
0,0,0,0,10,98.75,100,1539870940337
0,0,0,0,15,98.85,100,1539870940337
0,0,0,0,15,98.88,100,1539870940337
0,0,0,0,4,98.865,100,1539870940337
0,0,0,0,4,98.85,100,1539870940338
0,0,0,0,4,98.75,100,1539870940338
0,0,0,0,4,98.75,100,1539870940338
0,0,0,0,4,98.75,400,1539870940338
0,0,0,0,4,98.88,100,1539870940338
0,0,0,0,4,98.75,100,1539870940338
0,0,0,0,4,98.815,300,1539870940339
0,0,0,0,4,98.88,100,1539870940339
0,0,0,0,4,98.75,400,1539870940340
0,0,0,0,4,98.865,100,1539870940340
0,0,0,0,4,98.88,400,1539870940344
0,0,0,0,4,98.88,100,1539870940409
0,0,0,0,4,98.75,400,1539870940448
0,0,0,0,4,98.8325,300,1539870940452
0,0,0,0,4,98.75,400,1539870940495
0,0,0,0,4,98.815,100,1539870940559
0,0,0,0,4,98.865,300,1539870940560
14,41,0,0,12,98.76,100,1539870941268
0,0,0,0,2,98.84,100,1539870941973
0,0,0,0,12,98.76,100,1539870941973
0,0,0,0,10,98.84,100,1539870942019
14,41,0,0,11,98.82,100,1539870942019
14,41,0,0,12,98.82,100,1539870942020
0,0,0,0,12,98.83,100,1539870942020
0,0,0,0,12,98.83,100,1539870942020
14,41,0,0,11,98.83,100,1539870943757
0,0,0,0,15,98.83,100,1539870943774
0,0,0,0,11,98.83,100,1539870943790
0,0,0,0,11,98.83,200,1539870943884
0,0,0,0,4,98.83,100,1539870943986
14,41,0,0,19,98.83,100,1539870944291
0,0,0,0,12,98.795,100,1539870952130
0,0,0,0,11,98.75,100,1539870952132
0,0,0,0,8,98.75,100,1539870952132
0,0,0,0,10,98.75,100,1539870952132
0,0,0,0,7,98.795,100,1539870952132
0,0,0,0,8,98.75,100,1539870952132
14,41,0,0,7,98.795,100,1539870952132
0,0,0,0,12,98.75,100,1539870952132
0,0,0,0,8,98.75,100,1539870952132
0,0,0,0,17,98.75,100,1539870952132
14,41,0,0,12,98.75,100,1539870952132
14,41,0,0,12,98.76,100,1539870952132
14,37,41,0,11,98.67,50,1539870953312
0,0,0,0,10,98.66,100,1539870953312
37,0,0,0,12,98.67,50,1539870953312
37,0,0,0,12,98.66,50,1539870953312
37,0,0,0,12,98.66,50,1539870953313
0,0,0,0,4,98.69,200,1539870953314
0,0,0,0,11,98.69,100,1539870953314
0,0,0,0,11,98.7,100,1539870953314
0,0,0,0,4,98.7,200,1539870953324
0,0,0,0,4,98.7,200,1539870953333
37,0,0,0,12,98.69,59,1539870953394
0,0,0,0,10,98.8,200,1539870954296
0,0,0,0,2,98.84,100,1539870954302
37,0,0,0,10,98.7,59,1539870956127
0,0,0,0,4,98.82,100,1539870974972
0,0,0,0,4,98.73,100,1539870976391
37,0,0,0,4,98.7619,60,1539870977199
14,37,41,0,10,98.74,50,1539870978169
14,37,41,0,10,98.74,50,1539870978169
14,37,41,0,10,98.73,50,1539870978169
14,37,41,0,10,98.73,50,1539870978169
14,41,0,0,10,98.7,100,1539870978282
14,41,0,0,12,98.7,100,1539870978283
0,0,0,0,15,98.69,100,1539870979407
37,0,0,0,4,98.75,17,1539870985653
0,0,0,0,4,98.725,117,1539870985659
0,0,0,0,4,98.725,183,1539870985686
10,2,41,0,4,98.5875,100,1539870988426
37,0,0,0,12,98.66,4,1539870988427
37,0,0,0,12,98.63,96,1539870988427
14,41,0,0,10,98.62,100,1539870988427
37,0,0,0,12,98.63,4,1539870988428
14,37,41,0,8,98.63,24,1539870988428
0,0,0,0,4,98.685,200,1539870988429
0,0,0,0,4,98.75,200,1539870988694
0,0,0,0,4,98.75,200,1539871005933
0,0,0,0,4,98.75,100,1539871006982
0,0,0,0,15,98.68,200,1539871016993
0,0,0,0,10,98.75,200,1539871023581
0,0,0,0,11,98.75,100,1539871025414
14,41,0,0,10,98.75,100,1539871025414
0,0,0,0,12,98.75,100,1539871025414
37,0,0,0,19,98.75,10,1539871025414
14,41,0,0,10,98.75,100,1539871025414
0,0,0,0,12,98.75,100,1539871025414
37,0,0,0,19,98.75,90,1539871025414
0,0,0,0,12,98.75,100,1539871025414
14,37,41,0,19,98.75,10,1539871025414
14,37,41,0,12,98.76,37,1539871025414
14,37,41,0,12,98.76,52,1539871025414
14,41,0,0,10,98.79,100,1539871025415
37,0,0,0,15,98.77,94,1539871025415
0,0,0,0,15,98.77,106,1539871025415
14,41,0,0,12,98.79,100,1539871025415
0,0,0,0,10,98.79,100,1539871025415
0,0,0,0,4,98.745,100,1539871025416
0,0,0,0,4,98.75,100,1539871025416
0,0,0,0,4,98.75,100,1539871025417
0,0,0,0,4,98.79,100,1539871025418
14,41,0,0,12,98.785,100,1539871025863
0,0,0,0,4,98.785,100,1539871027046
0,0,0,0,12,98.81,100,1539871027052
0,0,0,0,11,98.75,100,1539871028272
0,0,0,0,19,98.75,100,1539871028272
14,41,0,0,19,98.75,100,1539871028272
0,0,0,0,12,98.75,100,1539871028272
0,0,0,0,19,98.75,100,1539871028272
0,0,0,0,10,98.71,100,1539871028294
0,0,0,0,4,98.73,600,1539871028675
0,0,0,0,4,98.73,300,1539871028676
0,0,0,0,4,98.73,300,1539871028678
0,0,0,0,4,98.73,1500,1539871028789
0,0,0,0,15,98.73,100,1539871028847
0,0,0,0,4,98.725,100,1539871029294
0,0,0,0,11,98.69,100,1539871030283
14,37,41,0,18,98.68,56,1539871030283
14,37,41,0,11,98.68,97,1539871030778
14,37,41,0,11,98.68,3,1539871030778
14,37,41,0,12,98.67,34,1539871030779
14,37,41,0,12,98.67,3,1539871030779
14,37,41,0,12,98.67,63,1539871030779
0,0,0,0,4,98.725,100,1539871030780
0,0,0,0,4,98.7225,100,1539871030780
0,0,0,0,4,98.72,100,1539871030780
0,0,0,0,12,98.68,100,1539871030780
0,0,0,0,12,98.68,100,1539871030780
0,0,0,0,12,98.68,200,1539871030780
0,0,0,0,4,98.69,100,1539871030780
0,0,0,0,4,98.695,100,1539871030781
0,0,0,0,12,98.68,100,1539871030781
0,0,0,0,4,98.71,100,1539871037940
0,0,0,0,2,98.74,100,1539871038105
0,0,0,0,10,98.74,100,1539871038108
14,41,0,0,2,98.74,100,1539871038848
0,0,0,0,4,98.74,100,1539871039202
0,0,0,0,10,98.74,100,1539871039203
14,41,0,0,11,98.74,100,1539871039203
14,41,0,0,8,98.74,100,1539871039203
14,37,41,0,19,98.74,66,1539871039203
14,41,0,0,12,98.74,100,1539871039203
0,0,0,0,12,98.74,100,1539871039203
0,0,0,0,8,98.75,100,1539871044577
0,0,0,0,12,98.75,100,1539871044922
0,0,0,0,12,98.75,100,1539871044922
0,0,0,0,4,98.765,100,1539871044922
0,0,0,0,4,98.725,100,1539871045560
0,0,0,0,4,98.77,100,1539871048714
0,0,0,0,4,98.77,100,1539871048747
14,41,0,0,19,98.77,100,1539871057480
14,41,0,0,2,98.77,100,1539871057481
14,41,0,0,10,98.78,200,1539871057499
14,41,0,0,10,98.78,100,1539871057500
14,41,0,0,10,98.78,100,1539871057500
0,0,0,0,4,98.735,100,1539871060498
0,0,0,0,15,98.745,100,1539871063279
0,0,0,0,4,98.745,200,1539871063310
0,0,0,0,4,98.745,600,1539871063311
0,0,0,0,11,98.8,100,1539871064282
0,0,0,0,15,98.745,159,1539871064290
0,0,0,0,15,98.745,200,1539871064291
0,0,0,0,4,98.745,100,1539871064941
0,0,0,0,12,98.74,100,1539871067739
0,0,0,0,10,98.74,100,1539871067739
0,0,0,0,12,98.74,100,1539871067739
0,0,0,0,4,98.775,100,1539871067739
14,37,41,0,10,98.77,34,1539871069027
37,0,0,0,10,98.77,66,1539871069027
37,0,0,0,4,98.81,48,1539871073550
0,0,0,0,15,98.745,100,1539871088288
0,0,0,0,11,98.74,100,1539871099944
0,0,0,0,4,98.775,100,1539871102449
14,41,0,0,10,98.81,100,1539871102839
0,0,0,0,4,98.81,100,1539871104681
0,0,0,0,11,98.81,200,1539871104682
0,0,0,0,10,98.81,154,1539871104682
14,37,41,0,19,98.81,67,1539871104682
14,37,41,0,19,98.81,33,1539871104682
14,37,41,0,12,98.81,17,1539871104682
0,0,0,0,12,98.775,100,1539871104682
14,37,41,0,12,98.82,24,1539871104682
14,37,41,0,10,98.83,4,1539871104683
14,37,41,0,12,98.82,76,1539871104683
37,0,0,0,10,98.83,96,1539871105085
14,41,0,0,12,98.83,100,1539871105086
14,37,41,0,10,98.84,56,1539871105086
14,37,41,0,10,98.84,18,1539871105086
37,0,0,0,10,98.84,26,1539871105118
0,0,0,0,4,98.84,100,1539871106390
0,0,0,0,4,98.85,100,1539871106535
0,0,0,0,10,98.85,100,1539871108338
14,41,0,0,11,98.85,100,1539871108338
14,41,0,0,12,98.85,100,1539871108339
0,0,0,0,15,98.86,100,1539871109578
0,0,0,0,15,98.86,100,1539871109578
0,0,0,0,18,98.86,100,1539871131210
0,0,0,0,18,98.76,100,1539871147453
0,0,0,0,18,98.75,100,1539871147453
0,0,0,0,18,98.75,100,1539871147453
14,41,0,0,11,98.75,100,1539871147453
0,0,0,0,10,98.75,101,1539871147453
0,0,0,0,18,98.75,100,1539871147453
14,41,0,0,18,98.75,100,1539871147453
0,0,0,0,2,98.75,100,1539871147453
0,0,0,0,18,98.75,100,1539871147453
0,0,0,0,12,98.75,100,1539871147453
14,41,0,0,18,98.75,100,1539871147453
14,37,41,0,18,98.75,95,1539871147453
14,37,41,0,18,98.75,5,1539871147453
0,0,0,0,4,98.805,100,1539871147454
0,0,0,0,12,98.75,100,1539871147454
0,0,0,0,4,98.8025,100,1539871147454
14,41,0,0,18,98.75,100,1539871147454
14,41,0,0,18,98.75,100,1539871147454
0,0,0,0,4,98.805,100,1539871147454
0,0,0,0,4,98.805,100,1539871147454
0,0,0,0,4,98.7775,100,1539871147454
0,0,0,0,12,98.75,100,1539871147454
0,0,0,0,12,98.8,100,1539871147454
0,0,0,0,4,98.805,100,1539871147454
0,0,0,0,4,98.805,100,1539871147454
0,0,0,0,12,98.8,100,1539871147454
0,0,0,0,4,98.7825,100,1539871147454
0,0,0,0,4,98.805,100,1539871147454
0,0,0,0,15,98.815,100,1539871147454
0,0,0,0,4,98.805,100,1539871147454
14,41,0,0,12,98.8,100,1539871147455
14,41,0,0,12,98.8,100,1539871147455
0,0,0,0,4,98.755,100,1539871147455
0,0,0,0,18,98.8,100,1539871147455
0,0,0,0,4,98.805,100,1539871147455
0,0,0,0,4,98.805,100,1539871147455
0,0,0,0,4,98.805,100,1539871147455
0,0,0,0,4,98.805,100,1539871147455
0,0,0,0,4,98.815,100,1539871147456
0,0,0,0,12,98.8,100,1539871147456
0,0,0,0,12,98.8,100,1539871147456
14,41,0,0,12,98.8,100,1539871147457
0,0,0,0,4,98.815,100,1539871147457
0,0,0,0,4,98.8125,100,1539871147457
0,0,0,0,4,98.805,100,1539871147457
0,0,0,0,4,98.805,100,1539871147458
0,0,0,0,4,98.805,276,1539871147458
0,0,0,0,10,98.86,100,1539871152089
0,0,0,0,10,98.86,100,1539871152295
14,41,0,0,11,98.86,100,1539871152295
14,41,0,0,19,98.86,100,1539871152295
14,37,41,0,8,98.86,10,1539871152295
14,41,0,0,2,98.86,100,1539871152295
14,41,0,0,12,98.86,100,1539871152295
14,37,41,0,10,98.87,37,1539871152295
0,0,0,0,12,98.86,100,1539871152296
0,0,0,0,8,98.86,100,1539871152296
14,37,41,0,10,98.87,20,1539871152296
14,41,0,0,10,98.87,126,1539871152296
14,37,41,0,10,98.87,17,1539871152296
37,0,0,0,12,98.87,96,1539871152296
0,0,0,0,8,98.87,100,1539871152297
0,0,0,0,4,98.9,100,1539871152865
0,0,0,0,12,98.92,100,1539871153125
0,0,0,0,12,98.93,100,1539871153789
0,0,0,0,12,98.93,100,1539871153789
14,41,0,0,12,98.94,100,1539871153789
14,41,0,0,12,98.94,100,1539871153790
14,37,41,0,8,98.95,12,1539871153790
0,0,0,0,8,98.95,100,1539871153790
0,0,0,0,12,98.93,100,1539871153790
0,0,0,0,7,98.925,160,1539871158495
0,0,0,0,11,98.97,100,1539871161394
0,0,0,0,10,98.97,100,1539871161394
14,41,0,0,19,98.95,100,1539871161394
14,41,0,0,18,98.92,100,1539871163158
14,41,0,0,18,98.92,100,1539871163158
0,0,0,0,18,98.92,100,1539871163158
0,0,0,0,12,98.93,100,1539871163158
0,0,0,0,12,98.92,100,1539871163158
14,41,0,0,11,98.95,100,1539871163158
14,41,0,0,11,98.95,100,1539871163158
14,41,0,0,12,98.92,100,1539871163158
14,41,0,0,19,98.92,100,1539871163158
14,41,0,0,19,98.92,100,1539871163158
14,41,0,0,19,98.92,100,1539871163158
14,37,41,0,10,98.88,40,1539871163159
0,0,0,0,4,98.92,100,1539871163159
0,0,0,0,11,98.92,100,1539871163213
14,41,0,0,11,98.925,500,1539871163213
37,0,0,0,10,98.93,35,1539871165426
0,0,0,0,4,98.98,100,1539871165928
0,0,0,0,4,98.97,100,1539871169675
0,0,0,0,12,98.92,100,1539871170757
0,0,0,0,12,98.88,100,1539871171695
0,0,0,0,4,98.885,100,1539871171697
37,0,0,0,4,98.819,10,1539871178768
37,0,0,0,4,98.819,17,1539871178791
37,0,0,0,4,98.86,10,1539871180153
0,0,0,0,4,98.825,9600,1539871183096
14,41,0,0,12,98.825,100,1539871183115
0,0,0,0,12,98.825,100,1539871183442
0,0,0,0,4,98.825,100,1539871186578
14,41,0,0,2,98.87,100,1539871187098
0,0,0,0,10,98.87,100,1539871191872
14,41,0,0,11,98.87,100,1539871191872
14,41,0,0,19,98.87,100,1539871191872
14,41,0,0,12,98.87,100,1539871191872
14,41,0,0,12,98.87,100,1539871191873
37,0,0,0,12,98.88,78,1539871191873
37,0,0,0,12,98.88,22,1539871191873
14,37,41,0,12,98.91,10,1539871191873
14,37,41,0,11,98.87,54,1539871200453
14,37,41,0,11,98.87,46,1539871200453
14,37,41,0,10,98.85,40,1539871200454
14,37,41,0,10,98.85,60,1539871200454
0,0,0,0,4,98.89,190,1539871200458
14,37,41,0,8,98.83,40,1539871200460
0,0,0,0,4,98.88,100,1539871200461
0,0,0,0,12,98.84,100,1539871200764
14,41,0,0,11,98.83,100,1539871200764
14,41,0,0,8,98.83,100,1539871200765
0,0,0,0,4,98.875,100,1539871200765
14,41,0,0,12,98.85,100,1539871200765
14,41,0,0,12,98.85,100,1539871200765
14,41,0,0,8,98.83,100,1539871200765
14,37,41,0,8,98.83,60,1539871200765
0,0,0,0,4,98.875,100,1539871200765
14,41,0,0,12,98.83,100,1539871200765
14,41,0,0,12,98.83,100,1539871200765
37,0,0,0,8,98.83,60,1539871200765
0,0,0,0,4,98.87,100,1539871200765
0,0,0,0,4,98.86,100,1539871200766
0,0,0,0,4,98.86,100,1539871200766
0,0,0,0,4,98.86,100,1539871200766
0,0,0,0,4,98.86,100,1539871200766
0,0,0,0,4,98.86,100,1539871200766
0,0,0,0,4,98.91,100,1539871200912
0,0,0,0,10,98.91,100,1539871201108
37,0,0,0,12,98.91,90,1539871201108
0,0,0,0,2,98.91,100,1539871201108
14,41,0,0,10,98.92,100,1539871201108
0,0,0,0,12,98.91,100,1539871201108
0,0,0,0,12,98.9,100,1539871201109
0,0,0,0,12,98.9,100,1539871201109
0,0,0,0,12,98.9,100,1539871201793
0,0,0,0,4,98.93,100,1539871204158
0,0,0,0,4,98.93,100,1539871204162
14,41,0,0,12,98.93,100,1539871204177
14,37,41,0,10,98.93,1,1539871204177
37,0,0,0,12,98.94,81,1539871204178
0,0,0,0,4,98.93,100,1539871204379
37,0,0,0,8,98.9,92,1539871205889
0,0,0,0,12,98.9,100,1539871205889
37,0,0,0,8,98.9,48,1539871205889
14,41,0,0,1,98.89,100,1539871205889
0,0,0,0,4,98.87,100,1539871208311
14,41,0,0,11,98.9,100,1539871209538
14,41,0,0,11,98.82,100,1539871213585
0,0,0,0,12,98.82,100,1539871213585
0,0,0,0,12,98.82,100,1539871213585
14,41,0,0,18,98.83,100,1539871213585
14,41,0,0,19,98.82,100,1539871213585
0,0,0,0,12,98.82,100,1539871213585
0,0,0,0,4,98.86,100,1539871213586
0,0,0,0,4,98.865,100,1539871213586
14,41,0,0,19,98.81,100,1539871215888
14,41,0,0,19,98.8,100,1539871216103
14,41,0,0,19,98.8,100,1539871216103
14,37,41,0,12,98.81,50,1539871216103
14,41,0,0,12,98.8,100,1539871216103
14,41,0,0,12,98.8,100,1539871216103
14,37,41,0,12,98.8,50,1539871216103
37,0,0,0,12,98.8,50,1539871216103
14,37,41,0,12,98.8,50,1539871216104
0,0,0,0,4,98.82,200,1539871225589
0,0,0,0,4,98.82,100,1539871228676
0,0,0,0,11,98.78,500,1539871230680
0,0,0,0,11,98.74,100,1539871230680
0,0,0,0,11,98.74,200,1539871230680
0,0,0,0,4,98.78,400,1539871230681
0,0,0,0,19,98.74,100,1539871230681
0,0,0,0,4,98.74,100,1539871230681
0,0,0,0,19,98.74,100,1539871230681
0,0,0,0,12,98.74,100,1539871230681
0,0,0,0,4,98.78,100,1539871230682
0,0,0,0,12,98.74,100,1539871230682
0,0,0,0,12,98.72,100,1539871230683
0,0,0,0,12,98.72,100,1539871230684
0,0,0,0,11,98.72,900,1539871230685
14,41,0,0,11,98.7,100,1539871230686
14,41,0,0,11,98.7,100,1539871230687
14,41,0,0,8,98.7,100,1539871230687
14,41,0,0,12,98.68,100,1539871230693
14,41,0,0,12,98.67,100,1539871230694
0,0,0,0,4,98.7,200,1539871230694
14,37,41,0,11,98.65,4,1539871231234
14,37,41,0,11,98.65,96,1539871231234
14,41,0,0,19,98.66,100,1539871231234
14,37,41,0,12,98.64,37,1539871231234
14,37,41,0,12,98.64,50,1539871231234
14,37,41,0,12,98.64,13,1539871231234
0,0,0,0,10,98.69,200,1539871233909
0,0,0,0,12,98.69,100,1539871233909
14,37,41,0,10,98.69,20,1539871233909
37,0,0,0,19,98.68,71,1539871233909
37,0,0,0,10,98.69,14,1539871233909
14,37,41,0,19,98.68,29,1539871233909
14,41,0,0,19,98.69,164,1539871233909
37,0,0,0,19,98.69,36,1539871233909
37,0,0,0,10,98.69,86,1539871233909
14,41,0,0,11,98.7,100,1539871233909
14,41,0,0,11,98.7,100,1539871233910
0,0,0,0,11,98.7,100,1539871233911
0,0,0,0,11,98.7,100,1539871234651
0,0,0,0,10,98.7,100,1539871234660
0,0,0,0,8,98.71,100,1539871234660
0,0,0,0,2,98.72,100,1539871235294
0,0,0,0,10,98.72,100,1539871238300
0,0,0,0,10,98.7,200,1539871240874
0,0,0,0,8,98.7,100,1539871240874
14,41,0,0,10,98.7,100,1539871241415
0,0,0,0,10,98.71,100,1539871243250
0,0,0,0,10,98.71,100,1539871249888
14,41,0,0,2,98.7,100,1539871249889
0,0,0,0,11,98.71,100,1539871250133
0,0,0,0,12,98.71,100,1539871250135
0,0,0,0,12,98.72,100,1539871260568
14,37,41,0,12,98.65,51,1539871260987
0,0,0,0,11,98.72,100,1539871261476
0,0,0,0,10,98.72,100,1539871261476
37,0,0,0,12,98.72,86,1539871261476
0,0,0,0,11,98.72,100,1539871261476
0,0,0,0,12,98.72,114,1539871261476
0,0,0,0,11,98.72,100,1539871261476
0,0,0,0,10,98.72,127,1539871261476
37,0,0,0,12,98.72,86,1539871261476
0,0,0,0,8,98.72,100,1539871261476
14,41,0,0,19,98.75,100,1539871261541
0,0,0,0,8,98.77,100,1539871261547
14,37,41,0,12,98.76,95,1539871261547
37,0,0,0,12,98.79,65,1539871262729
37,0,0,0,12,98.79,35,1539871262729
0,0,0,0,4,98.85,100,1539871264721
0,0,0,0,12,98.85,100,1539871264722
14,41,0,0,18,98.84,100,1539871264722
14,41,0,0,19,98.85,100,1539871264722
14,41,0,0,19,98.85,100,1539871264722
14,37,41,0,10,98.86,59,1539871264722
0,0,0,0,19,98.85,100,1539871268730
0,0,0,0,11,98.91,100,1539871270227
14,37,41,0,12,98.91,17,1539871270228
14,41,0,0,19,98.92,100,1539871272316
0,0,0,0,19,98.92,100,1539871272345
14,41,0,0,11,98.93,100,1539871272346
14,41,0,0,19,98.94,100,1539871275572
14,37,41,0,10,98.94,5,1539871275572
14,37,41,0,11,98.94,50,1539871276726
14,37,41,0,11,98.94,50,1539871276726
14,37,41,0,11,98.9,4,1539871280230
14,41,0,0,10,98.9,100,1539871280230
0,0,0,0,15,98.91,100,1539871280230
14,37,41,0,11,98.91,50,1539871283664
14,37,41,0,11,98.91,50,1539871283664
0,0,0,0,4,98.96,100,1539871286421
14,41,0,0,11,98.97,100,1539871286444
14,37,41,0,19,98.96,53,1539871286444
14,37,41,0,19,98.97,47,1539871286444
14,41,0,0,12,98.97,100,1539871286444
37,0,0,0,19,98.97,6,1539871286444
14,41,0,0,2,98.93,100,1539871286444
14,41,0,0,2,98.93,100,1539871286444
14,41,0,0,17,98.96,100,1539871286444
14,41,0,0,10,98.97,100,1539871287157
14,41,0,0,10,98.98,100,1539871287157
14,37,41,0,12,98.98,10,1539871287157
14,37,41,0,19,98.99,90,1539871287157
37,0,0,0,11,99,53,1539871289588
0,0,0,0,4,99.08,179,1539871290086
14,41,0,0,11,99.09,100,1539871290126
14,41,0,0,19,99.09,100,1539871290126
37,0,0,0,4,99.1062,3,1539871290138
0,0,0,0,12,99.1,100,1539871299407
0,0,0,0,11,99.11,100,1539871299764
14,37,41,0,11,99.12,70,1539871300197
14,41,0,0,11,99.12,100,1539871300197
14,41,0,0,11,99.11,200,1539871300197
14,41,0,0,11,99.11,130,1539871300197
0,0,0,0,4,99.145,100,1539871300204
14,37,41,0,12,99.14,69,1539871300526
14,37,41,0,12,99.14,31,1539871300526
14,41,0,0,10,99.14,100,1539871301597
14,41,0,0,12,99.14,100,1539871301597
14,41,0,0,12,99.15,300,1539871301597
14,41,0,0,10,99.18,100,1539871301599
0,0,0,0,19,99.17,100,1539871301600
0,0,0,0,4,99.15,100,1539871301754
0,0,0,0,4,99.18,100,1539871302445
0,0,0,0,4,99.19,100,1539871302446
37,0,0,0,4,99.19,3,1539871304452
37,0,0,0,10,99.09,51,1539871311290
14,37,41,0,11,99.11,70,1539871311290
14,41,0,0,8,99.16,100,1539871312523
14,41,0,0,12,99.16,100,1539871312524
14,37,41,0,8,99.17,9,1539871312524
0,0,0,0,4,99.17,100,1539871312720
14,37,41,0,11,99.17,40,1539871313879
14,37,41,0,11,99.17,60,1539871313879
0,0,0,0,10,99.13,100,1539871313881
14,41,0,0,11,99.09,100,1539871317652
14,37,41,0,10,99.09,49,1539871317652
14,41,0,0,11,99.09,100,1539871317652
14,41,0,0,18,99.09,100,1539871317652
14,41,0,0,2,99.09,100,1539871317652
14,41,0,0,19,99.09,100,1539871317652
14,41,0,0,12,99.09,100,1539871317652
14,41,0,0,12,99.09,100,1539871317670
0,0,0,0,11,99.09,100,1539871317916
14,37,41,0,12,99.09,4,1539871317916
0,0,0,0,10,99.12,100,1539871318542
0,0,0,0,12,99.12,100,1539871322930
14,41,0,0,2,99.16,100,1539871325206
0,0,0,0,4,99.16,200,1539871325409
0,0,0,0,4,99.16,100,1539871325410
37,0,0,0,12,99.16,15,1539871334102
37,0,0,0,12,99.16,85,1539871334102
0,0,0,0,12,99.09,100,1539871334995
0,0,0,0,12,99.09,100,1539871334995
14,41,0,0,8,99.15,100,1539871335307
0,0,0,0,8,99.08,100,1539871336898
14,41,0,0,11,99.08,100,1539871336898
0,0,0,0,11,99.08,100,1539871336898
14,41,0,0,10,99.09,100,1539871336898
0,0,0,0,10,99.08,100,1539871336898
0,0,0,0,19,99.08,100,1539871336898
14,41,0,0,19,99.08,100,1539871336898
14,41,0,0,12,99.08,100,1539871336898
0,0,0,0,12,99.08,100,1539871336898
14,41,0,0,12,99.08,100,1539871336898
14,41,0,0,10,99.07,100,1539871336898
0,0,0,0,4,99.08,100,1539871336900
0,0,0,0,8,99.04,100,1539871336900
0,0,0,0,8,99.08,100,1539871336901
14,41,0,0,19,99.14,100,1539871336911
14,41,0,0,10,99.14,100,1539871336911
14,41,0,0,10,99.14,200,1539871336912
37,0,0,0,12,99.07,10,1539871336912
14,37,41,0,18,99.07,10,1539871336912
14,37,41,0,19,99.12,10,1539871336912
14,37,41,0,19,99.12,10,1539871336912
0,0,0,0,4,99.14,100,1539871336913
14,41,0,0,19,99.14,100,1539871336921
0,0,0,0,4,99.09,100,1539871345427
0,0,0,0,10,99.15,100,1539871353314
37,0,0,0,8,99.15,58,1539871353314
0,0,0,0,19,99.15,100,1539871353314
37,0,0,0,19,99.17,77,1539871353315
0,0,0,0,12,99.17,100,1539871353315
14,41,0,0,12,99.19,100,1539871353315
14,41,0,0,12,99.19,100,1539871353315
0,0,0,0,12,99.19,100,1539871353316
37,0,0,0,19,99.18,10,1539871353316
37,0,0,0,8,99.18,10,1539871353316
37,0,0,0,19,99.17,90,1539871353316
37,0,0,0,12,99.19,10,1539871353316
37,0,0,0,12,99.19,10,1539871353316
37,0,0,0,8,99.17,15,1539871353316
14,37,41,0,12,99.19,80,1539871353316
37,0,0,0,8,99.17,10,1539871353316
37,0,0,0,8,99.17,65,1539871353318
0,0,0,0,12,99.17,100,1539871353318
37,0,0,0,12,99.19,10,1539871355712
37,0,0,0,12,99.19,15,1539871355712
0,0,0,0,10,99.22,100,1539871359310
37,0,0,0,10,99.22,99,1539871359942
14,41,0,0,12,99.19,100,1539871359942
37,0,0,0,10,99.22,1,1539871359942
0,0,0,0,10,99.19,100,1539871364050
14,41,0,0,11,99.22,100,1539871365968
0,0,0,0,11,99.22,100,1539871365968
0,0,0,0,10,99.21,100,1539871365968
14,41,0,0,10,99.22,100,1539871365968
0,0,0,0,12,99.22,100,1539871365968
14,41,0,0,2,99.21,100,1539871365968
0,0,0,0,2,99.22,100,1539871365968
0,0,0,0,12,99.22,100,1539871365968
14,41,0,0,18,99.21,100,1539871365968
0,0,0,0,12,99.17,100,1539871366664
14,41,0,0,12,99.16,100,1539871366664
0,0,0,0,11,99.15,100,1539871366665
0,0,0,0,12,99.15,100,1539871366665
14,37,41,0,10,99.15,99,1539871366665
37,0,0,0,10,99.15,1,1539871366665
0,0,0,0,19,99.15,100,1539871366665
14,41,0,0,19,99.15,100,1539871366665
0,0,0,0,4,99.15,100,1539871366667
14,41,0,0,10,99.14,100,1539871366670
14,41,0,0,12,99.15,100,1539871366670
14,41,0,0,11,99.12,100,1539871366696
0,0,0,0,11,99.11,100,1539871366697
37,0,0,0,12,99.15,69,1539871366698
0,0,0,0,10,99.16,100,1539871367234
37,0,0,0,10,99.16,36,1539871367234
0,0,0,0,12,99.16,100,1539871367234
0,0,0,0,12,99.16,100,1539871367234
0,0,0,0,12,99.16,100,1539871367234
0,0,0,0,12,99.17,100,1539871367235
14,41,0,0,12,99.22,100,1539871367855
0,0,0,0,4,99.12,100,1539871384264
0,0,0,0,10,99.12,100,1539871386965
0,0,0,0,10,99.11,200,1539871386965
0,0,0,0,10,99.11,100,1539871386965
37,0,0,0,12,99.12,50,1539871386966
37,0,0,0,11,99.12,50,1539871386966
37,0,0,0,11,99.11,50,1539871386966
0,0,0,0,12,99.12,100,1539871386966
0,0,0,0,12,99.11,100,1539871386966
37,0,0,0,12,99.11,50,1539871386966
0,0,0,0,19,99.11,100,1539871386966
37,0,0,0,12,99.11,50,1539871386966
0,0,0,0,12,99.11,100,1539871386966
0,0,0,0,12,99.11,150,1539871386966
37,0,0,0,12,99.11,50,1539871386966
0,0,0,0,8,99.07,100,1539871386966
37,0,0,0,12,99.06,51,1539871386966
37,0,0,0,11,99.07,50,1539871386967
0,0,0,0,11,99.07,250,1539871386967
37,0,0,0,11,99.07,50,1539871386967
0,0,0,0,12,99.04,100,1539871386968
0,0,0,0,8,99.01,100,1539871386968
0,0,0,0,4,99.07,100,1539871390770
0,0,0,0,4,99.08,100,1539871391774
0,0,0,0,4,99.08,100,1539871392163
0,0,0,0,4,99.08,100,1539871392725
0,0,0,0,10,99.02,100,1539871393567
0,0,0,0,4,99.11,100,1539871401702
37,0,0,0,4,99.11,50,1539871405469
0,0,0,0,10,99.11,116,1539871405489
0,0,0,0,10,99.11,100,1539871405623
0,0,0,0,11,99.11,100,1539871405730
14,37,41,0,10,99.11,84,1539871405730
14,41,0,0,19,99.11,100,1539871405730
14,37,41,0,12,99.12,53,1539871405730
14,37,41,0,12,99.12,47,1539871405730
14,37,41,0,12,99.12,49,1539871405730
14,37,41,0,12,99.12,13,1539871405730
0,0,0,0,19,99.11,100,1539871405730
0,0,0,0,12,99.11,100,1539871405731
37,0,0,0,19,99.14,50,1539871405731
0,0,0,0,4,99.125,100,1539871405732
0,0,0,0,4,99.11,100,1539871405739
0,0,0,0,4,99.12,100,1539871405741
14,37,41,0,19,99.14,50,1539871405761
14,37,41,0,12,99.17,50,1539871405761
0,0,0,0,19,99.12,100,1539871405890
14,37,41,0,8,99.1,26,1539871405890
14,37,41,0,8,99.1,70,1539871405890
14,37,41,0,8,99.1,4,1539871405890
0,0,0,0,8,99.1,100,1539871405891
14,37,41,0,10,99.09,25,1539871405891
0,0,0,0,4,99.11,100,1539871405898
0,0,0,0,15,99.085,100,1539871405949
0,0,0,0,4,99.0613,100,1539871408035
0,0,0,0,4,99.17,200,1539871408779
0,0,0,0,10,99.17,100,1539871409315
14,41,0,0,10,99.18,100,1539871413408
14,41,0,0,2,99.18,100,1539871413408
0,0,0,0,4,99.18,200,1539871413587
0,0,0,0,19,99.18,100,1539871413879
37,0,0,0,10,99.18,3,1539871413879
0,0,0,0,19,99.18,100,1539871413879
0,0,0,0,19,99.18,100,1539871413879
14,41,0,0,10,99.21,100,1539871413880
14,41,0,0,12,99.21,100,1539871413880
0,0,0,0,10,99.15,100,1539871413883
0,0,0,0,4,99.155,100,1539871413889
0,0,0,0,12,99.15,100,1539871424043
0,0,0,0,19,99.15,100,1539871424045
0,0,0,0,4,99.18,200,1539871427941
14,41,0,0,12,99.18,100,1539871427966
0,0,0,0,4,99.18,100,1539871427968
0,0,0,0,4,99.135,100,1539871427978
0,0,0,0,4,99.13,100,1539871429763
0,0,0,0,4,99.125,180,1539871434963
0,0,0,0,4,99.125,200,1539871434965
0,0,0,0,4,99.125,100,1539871436824
14,41,0,0,10,99.19,100,1539871438133
14,41,0,0,12,99.19,100,1539871438133
0,0,0,0,4,99.19,100,1539871440464
37,0,0,0,4,99.102,10,1539871444896
37,0,0,0,4,99.0877,18,1539871444903
37,0,0,0,15,99.06,5,1539871445028
0,0,0,0,4,99.125,350,1539871450376
0,0,0,0,4,99.125,400,1539871450377
0,0,0,0,4,99.18,100,1539871450757
14,41,0,0,10,99.19,200,1539871450839
0,0,0,0,10,99.19,100,1539871459959
14,41,0,0,11,99.19,100,1539871459959
14,37,41,0,8,99.19,11,1539871459959
14,41,0,0,19,99.19,100,1539871459959
14,37,41,0,12,99.19,18,1539871459959
14,41,0,0,11,99.19,100,1539871459959
14,37,41,0,12,99.19,82,1539871459959
14,37,41,0,12,99.19,18,1539871459959
14,37,41,0,12,99.19,14,1539871459959
14,41,0,0,19,99.19,100,1539871459959
14,41,0,0,19,99.19,100,1539871459959
14,41,0,0,19,99.2,100,1539871459960
14,37,41,0,12,99.2,83,1539871459960
14,37,41,0,12,99.21,17,1539871459960
37,0,0,0,7,99.16,10,1539871459960
37,0,0,0,12,99.21,83,1539871459964
37,0,0,0,12,99.21,17,1539871459964
0,0,0,0,12,99.19,100,1539871459964
0,0,0,0,4,99.2,100,1539871459965
14,41,0,0,12,99.15,100,1539871461073
14,37,41,0,12,99.15,33,1539871461073
0,0,0,0,11,99.15,100,1539871461073
14,41,0,0,11,99.15,100,1539871461074
0,0,0,0,11,99.15,100,1539871461074
37,0,0,0,12,99.15,67,1539871461074
0,0,0,0,19,99.15,100,1539871461074
0,0,0,0,11,99.15,100,1539871461074
0,0,0,0,11,99.15,100,1539871461075
0,0,0,0,4,99.17,100,1539871461077
0,0,0,0,4,99.17,100,1539871461078
0,0,0,0,12,99.16,100,1539871461078
0,0,0,0,4,99.19,100,1539871461079
0,0,0,0,4,99.19,100,1539871461079
0,0,0,0,4,99.19,100,1539871461081
0,0,0,0,4,99.155,100,1539871461081
37,0,0,0,12,99.16,90,1539871461082
0,0,0,0,4,99.19,100,1539871461083
0,0,0,0,4,99.15,100,1539871461085
0,0,0,0,4,99.19,100,1539871461087
0,0,0,0,15,99.19,100,1539871461173
0,0,0,0,4,99.1525,100,1539871461194
14,37,41,0,10,99.22,1,1539871461461
14,37,41,0,10,99.23,99,1539871461461
14,41,0,0,12,99.19,100,1539871461462
0,0,0,0,15,99.2,138,1539871461521
0,0,0,0,4,99.2,100,1539871461527
0,0,0,0,4,99.25,400,1539871461660
37,0,0,0,10,99.23,1,1539871464204
37,0,0,0,10,99.25,99,1539871464204
14,37,41,0,12,99.21,83,1539871464205
0,0,0,0,12,99.21,100,1539871464205
0,0,0,0,4,99.25,100,1539871464209
51,0,0,0,0,99.26,,1539871464212
14,41,0,0,10,99.25,451,1539871464212
14,37,41,0,12,99.24,69,1539871464212
14,41,0,0,12,99.25,400,1539871464212
14,41,0,0,10,99.26,100,1539871464212
0,0,0,0,12,99.25,100,1539871464212
14,37,41,0,12,99.27,80,1539871464213
14,37,41,0,12,99.27,20,1539871464213
14,41,0,0,17,99.26,100,1539871464213
0,0,0,0,4,99.21,100,1539871464215
51,0,0,0,0,99.28,,1539871464217
14,41,0,0,11,99.28,100,1539871464217
51,0,0,0,0,99.3,,1539871464218
0,0,0,0,11,99.3,100,1539871464218
14,41,0,0,12,99.3,100,1539871464218
14,41,0,0,12,99.3,100,1539871464218
14,41,0,0,12,99.3,100,1539871464218
14,41,0,0,12,99.3,100,1539871464218
14,37,41,0,12,99.31,80,1539871464218
0,0,0,0,4,99.21,100,1539871464219
14,37,41,0,12,99.31,20,1539871464219
14,37,41,0,12,99.31,80,1539871464219
37,0,0,0,12,99.31,20,1539871464219
0,0,0,0,4,99.21,100,1539871464221
37,0,0,0,10,99.32,80,1539871464232
14,41,0,0,12,99.29,100,1539871464266
0,0,0,0,12,99.29,100,1539871465054
51,0,0,0,0,99.32,,1539871465499
37,0,0,0,11,99.32,93,1539871465499
37,0,0,0,11,99.32,7,1539871465499
37,0,0,0,11,99.32,93,1539871465499
37,0,0,0,10,99.32,20,1539871465499
0,0,0,0,12,99.32,100,1539871465499
0,0,0,0,2,99.32,100,1539871465499
0,0,0,0,19,99.32,100,1539871465499
51,0,0,0,0,99.34,,1539871465500
0,0,0,0,12,99.32,100,1539871465500
0,0,0,0,12,99.34,100,1539871465500
37,0,0,0,4,99.3323,23,1539871467870
51,0,0,0,0,99.39,,1539871476351
0,0,0,0,4,99.39,300,1539871476351
0,0,0,0,4,99.34,100,1539871476437
0,0,0,0,4,99.38,100,1539871476515
0,0,0,0,4,99.335,100,1539871481557
0,0,0,0,11,99.38,1000,1539871482127
14,41,0,0,12,99.38,100,1539871482787
37,0,0,0,18,99.32,23,1539871487172
0,0,0,0,15,99.345,100,1539871487470
51,0,0,0,0,99.4,,1539871488268
14,41,0,0,11,99.4,200,1539871488268
14,41,0,0,12,99.39,100,1539871488268
0,0,0,0,11,99.4,300,1539871488268
0,0,0,0,19,99.4,100,1539871488268
0,0,0,0,11,99.4,100,1539871488268
14,41,0,0,10,99.4,100,1539871488268
0,0,0,0,11,99.4,100,1539871488514
0,0,0,0,4,99.38,100,1539871491841
37,0,0,0,10,99.34,33,1539871491916
51,0,0,0,0,99.44,,1539871492920
14,37,41,0,10,99.44,50,1539871492920
0,0,0,0,2,99.44,100,1539871492920
14,37,41,0,10,99.44,40,1539871492921
14,37,41,0,10,99.44,10,1539871492921
51,0,0,0,0,99.5,,1539871494993
0,0,0,0,15,99.5,100,1539871494993
0,0,0,0,10,99.5,100,1539871497078
0,0,0,0,10,99.5,100,1539871497671
0,0,0,0,4,99.44,100,1539871498658
0,0,0,0,12,99.5,100,1539871500157
0,0,0,0,19,99.47,100,1539871500158
37,0,0,0,11,99.45,50,1539871500159
37,0,0,0,11,99.44,50,1539871500159
0,0,0,0,10,99.44,100,1539871500159
14,37,41,0,11,99.44,50,1539871500159
0,0,0,0,12,99.44,100,1539871500159
0,0,0,0,19,99.44,100,1539871500159
37,0,0,0,12,99.43,78,1539871500160
37,0,0,0,12,99.43,22,1539871500160
0,0,0,0,4,99.455,100,1539871500160
0,0,0,0,4,99.47,100,1539871500160
0,0,0,0,4,99.455,100,1539871500161
0,0,0,0,4,99.435,100,1539871500161
0,0,0,0,4,99.445,100,1539871500161
0,0,0,0,4,99.455,100,1539871500161
0,0,0,0,4,99.43,100,1539871500170
0,0,0,0,4,99.455,200,1539871500172
0,0,0,0,12,99.44,100,1539871500283
0,0,0,0,12,99.44,100,1539871500283
0,0,0,0,12,99.44,100,1539871500283
0,0,0,0,12,99.43,100,1539871500284
0,0,0,0,4,99.4525,100,1539871500284
14,41,0,0,12,99.44,100,1539871500285
14,41,0,0,12,99.44,100,1539871500516
14,41,0,0,12,99.44,100,1539871500516
0,0,0,0,10,99.42,100,1539871500716
37,0,0,0,10,99.42,70,1539871500717
37,0,0,0,10,99.42,94,1539871500717
0,0,0,0,4,99.445,200,1539871500937
0,0,0,0,10,99.47,100,1539871501974
0,0,0,0,4,99.47,600,1539871501980
37,0,0,0,4,99.41,70,1539871503478
37,0,0,0,10,99.41,52,1539871503537
0,0,0,0,12,99.4,100,1539871506341
0,0,0,0,2,99.4,100,1539871506341
0,0,0,0,17,99.4,100,1539871506341
14,37,41,0,10,99.38,60,1539871506341
14,37,41,0,10,99.38,40,1539871506341
0,0,0,0,19,99.39,100,1539871506341
14,41,0,0,19,99.39,100,1539871506341
14,41,0,0,12,99.4,100,1539871506341
14,41,0,0,19,99.38,140,1539871506342
14,37,41,0,19,99.38,70,1539871506342
0,0,0,0,4,99.4325,100,1539871506342
14,37,41,0,19,99.38,37,1539871506342
14,41,0,0,19,99.39,153,1539871506342
14,37,41,0,19,99.39,47,1539871506342
14,41,0,0,19,99.38,106,1539871506342
0,0,0,0,19,99.39,100,1539871506342
37,0,0,0,19,99.38,47,1539871506342
14,41,0,0,12,99.4,100,1539871506342
0,0,0,0,4,99.435,100,1539871506342
0,0,0,0,12,99.4,100,1539871506342
0,0,0,0,4,99.435,200,1539871506342
0,0,0,0,4,99.4325,100,1539871506342
0,0,0,0,4,99.42,100,1539871506342
0,0,0,0,4,99.4325,100,1539871506342
0,0,0,0,4,99.435,200,1539871506343
0,0,0,0,4,99.435,100,1539871506343
0,0,0,0,4,99.4,100,1539871506343
0,0,0,0,4,99.43,100,1539871506343
0,0,0,0,4,99.4275,100,1539871506343
37,0,0,0,12,99.43,43,1539871506343
0,0,0,0,4,99.43,200,1539871506343
37,0,0,0,19,99.41,10,1539871506343
37,0,0,0,18,99.41,10,1539871506343
37,0,0,0,7,99.41,10,1539871506343
37,0,0,0,8,99.41,10,1539871506343
37,0,0,0,12,99.41,10,1539871506343
37,0,0,0,19,99.41,3,1539871506343
0,0,0,0,12,99.41,100,1539871506343
14,37,41,0,10,99.46,95,1539871506350
0,0,0,0,2,99.47,100,1539871506364
0,0,0,0,10,99.47,100,1539871506364
37,0,0,0,19,99.46,69,1539871506364
37,0,0,0,19,99.47,31,1539871506364
0,0,0,0,10,99.47,100,1539871506364
37,0,0,0,19,99.47,69,1539871506364
0,0,0,0,19,99.47,100,1539871506365
37,0,0,0,19,99.46,97,1539871506636
0,0,0,0,18,99.46,100,1539871506636
0,0,0,0,19,99.46,350,1539871506636
0,0,0,0,10,99.44,200,1539871506640
0,0,0,0,12,99.41,100,1539871507233
0,0,0,0,12,99.41,100,1539871507233
14,41,0,0,18,99.42,100,1539871507233
14,41,0,0,18,99.41,100,1539871507233
0,0,0,0,10,99.41,100,1539871510094
0,0,0,0,4,99.48,100,1539871511940
0,0,0,0,4,99.48,100,1539871511940
0,0,0,0,4,99.49,100,1539871511940
0,0,0,0,4,99.49,100,1539871511940
0,0,0,0,4,99.49,100,1539871511941
0,0,0,0,10,99.49,100,1539871511951
14,41,0,0,2,99.49,100,1539871511951
14,41,0,0,2,99.49,100,1539871511951
0,0,0,0,19,99.49,100,1539871511951
14,41,0,0,10,99.49,100,1539871511951
0,0,0,0,10,99.49,100,1539871511951
0,0,0,0,10,99.49,100,1539871511951
0,0,0,0,10,99.49,100,1539871511951
0,0,0,0,19,99.49,100,1539871511951
14,41,0,0,12,99.46,100,1539871511951
37,0,0,0,12,99.45,10,1539871511951
37,0,0,0,7,99.46,10,1539871511951
37,0,0,0,12,99.48,10,1539871511951
37,0,0,0,12,99.45,10,1539871511951
14,37,41,0,19,99.48,10,1539871511952
14,37,41,0,18,99.48,10,1539871511952
14,37,41,0,19,99.48,80,1539871511952
0,0,0,0,10,99.5,100,1539871511964
14,37,41,0,19,99.48,20,1539871511965
0,0,0,0,4,99.44,100,1539871513368
37,0,0,0,12,99.45,10,1539871515025
0,0,0,0,2,99.45,100,1539871515025
37,0,0,0,12,99.45,90,1539871515025
37,0,0,0,12,99.45,10,1539871515025
0,0,0,0,4,99.465,200,1539871515040
0,0,0,0,12,99.49,100,1539871515607
37,0,0,0,4,99.5,1,1539871516656
0,0,0,0,4,99.4468,200,1539871516830
0,0,0,0,4,99.44,100,1539871516832
0,0,0,0,12,99.43,100,1539871516833
0,0,0,0,12,99.43,100,1539871516834
0,0,0,0,4,99.46,200,1539871516835
0,0,0,0,10,99.42,200,1539871517386
0,0,0,0,11,99.42,100,1539871517386
14,41,0,0,12,99.42,100,1539871517387
0,0,0,0,8,99.41,100,1539871517387
0,0,0,0,8,99.41,100,1539871517387
14,37,41,0,8,99.41,63,1539871517387
14,37,41,0,8,99.41,37,1539871517387
14,41,0,0,10,99.4,100,1539871517390
14,41,0,0,12,99.4,400,1539871517390
14,37,41,0,11,99.42,63,1539871517392
37,0,0,0,11,99.42,37,1539871517392
0,0,0,0,19,99.39,100,1539871517393
14,41,0,0,12,99.35,100,1539871518708
14,41,0,0,12,99.34,100,1539871518708
0,0,0,0,2,99.35,100,1539871518708
0,0,0,0,2,99.34,100,1539871518708
0,0,0,0,12,99.34,100,1539871518708
0,0,0,0,10,99.33,100,1539871518726
0,0,0,0,15,99.33,100,1539871518733
0,0,0,0,11,99.33,100,1539871518970
0,0,0,0,12,99.33,100,1539871518970
0,0,0,0,12,99.33,100,1539871518970
0,0,0,0,4,99.37,200,1539871518971
37,0,0,0,18,99.38,10,1539871518992
0,0,0,0,10,99.38,100,1539871519227
37,0,0,0,12,99.38,51,1539871519227
0,0,0,0,12,99.38,100,1539871519228
37,0,0,0,12,99.38,10,1539871519228
0,0,0,0,4,99.41,200,1539871526609
0,0,0,0,4,99.41,120,1539871529721
37,0,0,0,4,99.343,25,1539871534292
37,0,0,0,4,99.41,1,1539871536351
0,0,0,0,4,99.41,100,1539871546176
0,0,0,0,11,99.41,100,1539871546178
0,0,0,0,12,99.41,100,1539871546178
0,0,0,0,12,99.41,100,1539871546178
0,0,0,0,2,99.41,100,1539871546178
0,0,0,0,8,99.41,100,1539871546178
0,0,0,0,10,99.41,200,1539871546178
0,0,0,0,18,99.41,100,1539871546178
0,0,0,0,4,99.41,100,1539871546199
0,0,0,0,10,99.47,100,1539871546593
0,0,0,0,4,99.42,100,1539871546604
0,0,0,0,4,99.42,100,1539871547103
37,0,0,0,4,99.42,59,1539871561413
0,0,0,0,4,99.43,300,1539871570683
0,0,0,0,7,99.49,100,1539871570686
0,0,0,0,11,99.49,100,1539871574550
51,0,0,0,0,99.515,,1539871574551
0,0,0,0,4,99.515,200,1539871574551
0,0,0,0,11,99.51,100,1539871577635
14,41,0,0,11,99.51,100,1539871577638
0,0,0,0,4,99.464,400,1539871578004
14,41,0,0,10,99.46,100,1539871584681
0,0,0,0,11,99.46,100,1539871584681
0,0,0,0,12,99.46,100,1539871584682
0,0,0,0,12,99.46,100,1539871584682
0,0,0,0,4,99.46,100,1539871584682
0,0,0,0,4,99.5,200,1539871584683
0,0,0,0,11,99.44,100,1539871584683
0,0,0,0,10,99.44,200,1539871584683
0,0,0,0,17,99.44,100,1539871584683
0,0,0,0,11,99.43,100,1539871584684
14,37,41,0,12,99.44,10,1539871584684
14,41,0,0,10,99.43,340,1539871584684
0,0,0,0,12,99.43,100,1539871584684
14,37,41,0,19,99.42,15,1539871584686
14,37,41,0,12,99.42,10,1539871584687
0,0,0,0,7,99.41,100,1539871584687
0,0,0,0,4,99.47,200,1539871584690
0,0,0,0,4,99.445,100,1539871584695
0,0,0,0,19,99.45,100,1539871584702
37,0,0,0,12,99.46,10,1539871584706
0,0,0,0,19,99.45,100,1539871584706
10,2,41,0,4,99.0432,100,1539871588431
14,37,41,0,10,99.39,5,1539871592701
0,0,0,0,2,99.47,100,1539871604193
14,41,0,0,10,99.47,200,1539871604193
14,41,0,0,12,99.425,100,1539871604193
0,0,0,0,12,99.47,100,1539871604193
14,37,41,0,10,99.48,10,1539871604193
14,37,41,0,10,99.48,90,1539871604193
0,0,0,0,12,99.47,100,1539871604193
0,0,0,0,4,99.47,100,1539871604194
0,0,0,0,10,99.49,200,1539871604195
14,41,0,0,12,99.47,100,1539871604195
14,41,0,0,12,99.49,100,1539871604195
0,0,0,0,12,99.5,100,1539871604195
0,0,0,0,4,99.45,100,1539871604196
0,0,0,0,4,99.47,100,1539871604202
0,0,0,0,12,99.48,100,1539871604203
0,0,0,0,4,99.5025,400,1539871605532
0,0,0,0,4,99.495,100,1539871606534
0,0,0,0,4,99.495,100,1539871606537
51,0,0,0,0,99.53,,1539871609308
51,0,0,0,0,99.535,,1539871609308
51,0,0,0,0,99.54,,1539871609308
37,0,0,0,19,99.53,6,1539871609308
37,0,0,0,12,99.53,94,1539871609308
37,0,0,0,19,99.53,46,1539871609308
37,0,0,0,10,99.54,8,1539871609308
0,0,0,0,19,99.53,100,1539871609308
37,0,0,0,18,99.54,19,1539871609308
0,0,0,0,12,99.535,100,1539871609308
0,0,0,0,8,99.54,100,1539871609308
0,0,0,0,12,99.53,100,1539871609308
0,0,0,0,12,99.53,100,1539871609308
37,0,0,0,8,99.54,17,1539871609308
0,0,0,0,12,99.54,100,1539871609308
37,0,0,0,12,99.54,15,1539871609308
37,0,0,0,8,99.54,83,1539871609309
37,0,0,0,12,99.53,17,1539871609309
14,41,0,0,12,99.53,100,1539871609720
51,0,0,0,0,99.55,,1539871612105
14,37,41,0,12,99.53,83,1539871612105
0,0,0,0,10,99.55,100,1539871612105
14,37,41,0,12,99.55,19,1539871612106
51,0,0,0,0,99.56,,1539871613223
0,0,0,0,8,99.56,100,1539871613223
0,0,0,0,10,99.56,100,1539871613223
14,41,0,0,11,99.56,100,1539871613223
14,37,41,0,10,99.57,17,1539871613223
14,37,41,0,10,99.57,10,1539871613223
14,37,41,0,10,99.57,6,1539871613223
14,37,41,0,12,99.57,64,1539871613223
14,37,41,0,12,99.57,36,1539871613223
14,37,41,0,10,99.57,67,1539871613223
14,37,41,0,12,99.57,71,1539871613223
14,37,41,0,12,99.57,29,1539871613223
14,37,41,0,12,99.57,30,1539871613223
14,37,41,0,12,99.57,37,1539871613223
0,0,0,0,11,99.56,100,1539871614687
0,0,0,0,11,99.55,100,1539871619832
0,0,0,0,10,99.56,100,1539871619846
0,0,0,0,4,99.53,100,1539871622031
0,0,0,0,15,99.56,100,1539871622039
14,37,41,0,11,99.56,47,1539871622049
14,37,41,0,10,99.56,10,1539871622049
14,37,41,0,12,99.55,45,1539871622049
14,37,41,0,12,99.56,98,1539871622049
0,0,0,0,4,99.56,100,1539871622049
0,0,0,0,4,99.56,100,1539871622050
37,0,0,0,10,99.56,45,1539871625804
0,0,0,0,10,99.51,100,1539871626601
0,0,0,0,19,99.5,100,1539871626602
0,0,0,0,2,99.51,100,1539871626602
0,0,0,0,12,99.51,100,1539871626602
14,41,0,0,10,99.51,100,1539871626602
0,0,0,0,10,99.5,100,1539871626602
14,41,0,0,10,99.5,100,1539871626602
37,0,0,0,19,99.505,66,1539871626602
14,41,0,0,12,99.5,100,1539871626602
14,41,0,0,2,99.5,100,1539871626602
37,0,0,0,19,99.505,34,1539871626602
14,41,0,0,10,99.5,100,1539871626602
37,0,0,0,12,99.5,78,1539871626602
37,0,0,0,12,99.5,22,1539871626602
0,0,0,0,4,99.5,100,1539871626602
0,0,0,0,4,99.53,200,1539871626603
37,0,0,0,19,99.51,22,1539871626606
0,0,0,0,4,99.5,100,1539871626615
0,0,0,0,2,99.5,100,1539871626699
0,0,0,0,10,99.49,200,1539871626715
0,0,0,0,19,99.49,100,1539871626715
14,41,0,0,8,99.48,100,1539871626715
14,41,0,0,12,99.48,246,1539871626715
14,37,41,0,12,99.48,54,1539871626715
14,37,41,0,12,99.48,54,1539871626715
14,37,41,0,12,99.48,16,1539871626715
14,37,41,0,12,99.48,30,1539871626716
14,37,41,0,12,99.47,70,1539871626716
14,37,41,0,12,99.47,30,1539871626716
14,37,41,0,12,99.45,3,1539871626716
14,37,41,0,12,99.45,54,1539871626716
37,0,0,0,12,99.45,43,1539871626716
0,0,0,0,12,99.45,100,1539871626716
37,0,0,0,12,99.44,57,1539871626716
37,0,0,0,12,99.44,43,1539871626716
0,0,0,0,4,99.525,200,1539871626716
37,0,0,0,10,99.48,63,1539871626726
37,0,0,0,10,99.48,37,1539871626726
0,0,0,0,15,99.48,100,1539871626727
0,0,0,0,12,99.48,100,1539871626729
0,0,0,0,4,99.445,100,1539871626738
14,41,0,0,10,99.51,100,1539871626756
14,37,41,0,12,99.51,86,1539871626756
0,0,0,0,4,99.46,100,1539871628880
0,0,0,0,4,99.455,100,1539871633655
37,0,0,0,4,99.38,90,1539871633659
0,0,0,0,4,99.4025,100,1539871635876
0,0,0,0,4,99.41,100,1539871639255
37,0,0,0,4,99.4384,20,1539871639582
0,0,0,0,11,99.48,100,1539871641761
14,37,41,0,10,99.48,79,1539871641761
14,41,0,0,2,99.47,100,1539871641761
0,0,0,0,12,99.445,100,1539871645556
0,0,0,0,11,99.44,100,1539871646235
0,0,0,0,4,99.445,100,1539871646610
0,0,0,0,4,99.4043,139,1539871647694
14,41,0,0,11,99.4,100,1539871648943
37,0,0,0,19,99.4,1,1539871648943
14,41,0,0,10,99.4,100,1539871648943
0,0,0,0,10,99.4,100,1539871648943
14,41,0,0,8,99.43,100,1539871648943
0,0,0,0,12,99.4,100,1539871648943
37,0,0,0,12,99.4,99,1539871648943
14,37,41,0,12,99.4,1,1539871648943
0,0,0,0,11,99.38,100,1539871648943
14,41,0,0,8,99.38,100,1539871648944
0,0,0,0,19,99.37,100,1539871648944
14,41,0,0,12,99.37,100,1539871648944
0,0,0,0,12,99.34,100,1539871648946
37,0,0,0,10,99.37,42,1539871648946
0,0,0,0,4,99.37,100,1539871649093
0,0,0,0,4,99.355,100,1539871649152
0,0,0,0,12,99.3,100,1539871649219
0,0,0,0,4,99.27,100,1539871649243
0,0,0,0,12,99.27,100,1539871649244
0,0,0,0,4,99.335,200,1539871649789
0,0,0,0,4,99.34,100,1539871650098
0,0,0,0,15,99.14,100,1539871653685
0,0,0,0,4,99.225,100,1539871667785
37,0,0,0,4,99.1725,35,1539871668624
0,0,0,0,10,99.22,100,1539871669450
0,0,0,0,11,99.21,100,1539871669475
0,0,0,0,12,99.21,100,1539871669475
14,37,41,0,12,99.27,10,1539871669476
37,0,0,0,12,99.21,10,1539871669476
37,0,0,0,4,99.2279,1,1539871669702
37,0,0,0,10,99.14,90,1539871671610
37,0,0,0,10,99.12,10,1539871671610
37,0,0,0,4,99.25,1,1539871671634
0,0,0,0,4,99.1486,105,1539871671754
37,0,0,0,8,99.11,47,1539871676170
37,0,0,0,8,99.11,35,1539871676170
37,0,0,0,11,99.12,10,1539871676171
37,0,0,0,11,99.1,10,1539871676171
37,0,0,0,11,99.09,80,1539871676171
0,0,0,0,19,99.11,165,1539871676171
14,37,41,0,10,99.14,90,1539871676171
14,37,41,0,19,99.11,35,1539871676171
14,37,41,0,10,99.12,10,1539871676171
14,37,41,0,10,99.12,80,1539871676171
0,0,0,0,18,99.22,100,1539871676181
0,0,0,0,15,99.175,200,1539871679710
0,0,0,0,4,99.18,100,1539871682923
0,0,0,0,10,99.18,100,1539871689503
0,0,0,0,12,99.18,100,1539871689504
0,0,0,0,19,99.22,100,1539871689508
14,41,0,0,12,99.24,100,1539871690806
0,0,0,0,12,99.19,200,1539871690814
0,0,0,0,12,99.18,200,1539871690814
0,0,0,0,11,99.23,200,1539871691025
0,0,0,0,12,99.23,100,1539871691025
37,0,0,0,12,99.24,14,1539871691033
37,0,0,0,12,99.24,86,1539871691033
14,41,0,0,11,99.24,100,1539871695303
14,41,0,0,11,99.24,100,1539871695303
14,37,41,0,12,99.24,14,1539871695303
14,41,0,0,10,99.25,100,1539871695303
14,41,0,0,8,99.27,100,1539871695304
0,0,0,0,4,99.27,100,1539871695307
0,0,0,0,4,99.24,100,1539871695311
0,0,0,0,10,99.24,100,1539871700731
0,0,0,0,4,99.27,200,1539871706857
14,41,0,0,2,99.27,100,1539871707961
14,37,41,0,2,99.27,80,1539871707961
14,37,41,0,2,99.27,20,1539871707961
0,0,0,0,12,99.3,100,1539871707962
37,0,0,0,12,99.3,2,1539871707962
14,37,41,0,10,99.32,2,1539871707962
0,0,0,0,12,99.31,100,1539871707962
0,0,0,0,12,99.3,100,1539871707962
14,37,41,0,10,99.32,52,1539871707962
14,37,41,0,10,99.32,46,1539871707962
14,41,0,0,11,99.32,100,1539871707962
14,41,0,0,12,99.32,100,1539871707963
0,0,0,0,4,99.24,100,1539871707964
14,41,0,0,12,99.3,100,1539871707964
0,0,0,0,4,99.29,100,1539871707964
37,0,0,0,4,99.33,10,1539871721691
14,41,0,0,10,99.33,100,1539871724004
0,0,0,0,12,99.31,100,1539871724004
37,0,0,0,12,99.33,18,1539871724004
14,41,0,0,12,99.31,100,1539871724004
14,37,41,0,12,99.33,18,1539871724004
14,37,41,0,12,99.33,82,1539871724004
0,0,0,0,4,99.33,100,1539871724006
0,0,0,0,10,99.34,200,1539871724006
0,0,0,0,19,99.37,100,1539871726613
0,0,0,0,12,99.33,100,1539871726614
14,41,0,0,12,99.37,100,1539871726614
0,0,0,0,10,99.38,100,1539871728989
0,0,0,0,11,99.38,100,1539871730336
14,37,41,0,11,99.39,50,1539871730336
14,37,41,0,11,99.39,50,1539871730336
0,0,0,0,12,99.39,100,1539871730336
0,0,0,0,12,99.38,100,1539871730337
0,0,0,0,12,99.39,100,1539871730337
0,0,0,0,4,99.38,100,1539871730340
0,0,0,0,4,99.395,100,1539871730646
37,0,0,0,4,99.3801,2,1539871730739
0,0,0,0,2,99.39,200,1539871731108
0,0,0,0,11,99.41,100,1539871731800
0,0,0,0,12,99.41,100,1539871731800
0,0,0,0,10,99.43,100,1539871733129
0,0,0,0,11,99.44,100,1539871734703
0,0,0,0,10,99.44,100,1539871734703
14,41,0,0,12,99.43,100,1539871734986
0,0,0,0,10,99.43,100,1539871737335
0,0,0,0,10,99.43,100,1539871737678
0,0,0,0,12,99.44,100,1539871737681
0,0,0,0,2,99.44,100,1539871737681
0,0,0,0,11,99.44,100,1539871739592
0,0,0,0,12,99.44,100,1539871739592
14,41,0,0,12,99.44,100,1539871739592
14,41,0,0,3,99.42,100,1539871739619
14,41,0,0,10,99.42,101,1539871739619
37,0,0,0,10,99.42,99,1539871739619
37,0,0,0,12,99.42,1,1539871739619
0,0,0,0,11,99.41,100,1539871739620
0,0,0,0,10,99.39,100,1539871739621
0,0,0,0,12,99.39,100,1539871739621
14,37,41,0,10,99.38,37,1539871739621
14,37,41,0,10,99.38,63,1539871739621
14,37,41,0,10,99.36,6,1539871739621
0,0,0,0,4,99.42,100,1539871739621
14,41,0,0,7,99.38,100,1539871739621
14,37,41,0,10,99.36,94,1539871739622
0,0,0,0,12,99.39,100,1539871739623
37,0,0,0,4,99.46,20,1539871739936
37,0,0,0,4,99.47,80,1539871740053
0,0,0,0,12,99.41,100,1539871740417
0,0,0,0,12,99.41,100,1539871740418
0,0,0,0,10,99.44,100,1539871740430
0,0,0,0,4,99.36,100,1539871740703
0,0,0,0,4,99.43,100,1539871741705
0,0,0,0,10,99.36,100,1539871741875
0,0,0,0,4,99.43,100,1539871742134
0,0,0,0,10,99.4,100,1539871742607
0,0,0,0,4,99.39,100,1539871743988
0,0,0,0,4,99.39,100,1539871744598
0,0,0,0,12,99.35,100,1539871744599
14,37,41,0,10,99.34,63,1539871744599
14,37,41,0,10,99.34,37,1539871744599
37,0,0,0,18,99.4,18,1539871744712
37,0,0,0,4,99.41,1,1539871747871
0,0,0,0,2,99.33,100,1539871748722
0,0,0,0,12,99.33,100,1539871748722
37,0,0,0,12,99.33,95,1539871748722
14,41,0,0,8,99.33,100,1539871748722
0,0,0,0,12,99.33,100,1539871757972
0,0,0,0,2,99.34,100,1539871757972
0,0,0,0,12,99.34,100,1539871757972
0,0,0,0,2,99.34,100,1539871757972
37,0,0,0,17,99.34,15,1539871757972
37,0,0,0,2,99.34,10,1539871757972
37,0,0,0,19,99.34,10,1539871757972
37,0,0,0,18,99.34,10,1539871757972
14,41,0,0,10,99.35,100,1539871757972
37,0,0,0,8,99.34,10,1539871757972
37,0,0,0,7,99.34,10,1539871757972
0,0,0,0,12,99.33,100,1539871757972
37,0,0,0,12,99.33,10,1539871757972
37,0,0,0,12,99.33,15,1539871757972
14,37,41,0,12,99.33,10,1539871757972
14,37,41,0,12,99.33,10,1539871757972
14,37,41,0,12,99.33,10,1539871757972
14,37,41,0,12,99.33,10,1539871757972
0,0,0,0,19,99.33,100,1539871757972
37,0,0,0,4,99.33,1,1539871757991
14,41,0,0,12,99.33,100,1539871757993
0,0,0,0,12,99.33,100,1539871760914
14,37,41,0,12,99.26,51,1539871764997
37,0,0,0,12,99.26,49,1539871764997
0,0,0,0,11,99.26,100,1539871765463
0,0,0,0,10,99.27,100,1539871765651
0,0,0,0,4,99.31,198,1539871768816
37,0,0,0,4,99.235,60,1539871779203
14,41,0,0,10,99.27,100,1539871787119
37,0,0,0,4,99.24,40,1539871787131
0,0,0,0,10,99.21,100,1539871787256
37,0,0,0,10,99.21,90,1539871790189
37,0,0,0,10,99.2,10,1539871790189
14,37,41,0,10,99.2,90,1539871790189
0,0,0,0,12,99.2,100,1539871790189
14,41,0,0,10,99.19,100,1539871790189
0,0,0,0,12,99.2,100,1539871790189
0,0,0,0,12,99.2,100,1539871790189
14,37,41,0,12,99.19,70,1539871790190
14,37,41,0,8,99.18,10,1539871790190
14,37,41,0,8,99.18,90,1539871790190
37,0,0,0,12,99.19,30,1539871790190
0,0,0,0,4,99.19,100,1539871790191
0,0,0,0,4,99.205,100,1539871790197
0,0,0,0,12,99.19,100,1539871790200
0,0,0,0,4,99.2,200,1539871791473
37,0,0,0,4,99.21,1,1539871804084
0,0,0,0,4,99.11,201,1539871807024
0,0,0,0,10,99.19,100,1539871819003
14,41,0,0,10,99.19,100,1539871824888
14,41,0,0,10,99.2,100,1539871824888
14,41,0,0,12,99.2,100,1539871824889
14,41,0,0,12,99.2,100,1539871824889
0,0,0,0,19,99.2,100,1539871824889
37,0,0,0,12,99.21,14,1539871824897
37,0,0,0,12,99.21,86,1539871824897
0,0,0,0,12,99.16,100,1539871825654
0,0,0,0,11,99.12,100,1539871828622
0,0,0,0,2,99.13,100,1539871828622
0,0,0,0,12,99.12,100,1539871828622
0,0,0,0,12,99.12,100,1539871828622
0,0,0,0,10,99.12,100,1539871828622
0,0,0,0,18,99.14,100,1539871828622
0,0,0,0,7,99.13,100,1539871828622
0,0,0,0,19,99.12,100,1539871828622
0,0,0,0,8,99.13,100,1539871828622
0,0,0,0,4,99.12,100,1539871828622
0,0,0,0,10,99.11,100,1539871828623
0,0,0,0,4,99.12,100,1539871828623
0,0,0,0,12,99.11,100,1539871828623
0,0,0,0,12,99.1,100,1539871828624
0,0,0,0,10,99.1,100,1539871828631
0,0,0,0,10,99.1,100,1539871829043
0,0,0,0,19,99.1,100,1539871829043
14,37,41,0,19,99.11,8,1539871829043
0,0,0,0,4,99.065,100,1539871829632
0,0,0,0,4,99.11,100,1539871829641
14,41,0,0,11,99.07,100,1539871830603
0,0,0,0,10,99.1,100,1539871832935
37,0,0,0,11,99.1,50,1539871838519
37,0,0,0,11,99.1,50,1539871838519
0,0,0,0,8,99.07,100,1539871838543
0,0,0,0,11,99.07,100,1539871848759
0,0,0,0,12,99.06,100,1539871848782
37,0,0,0,19,99.09,10,1539871848790
37,0,0,0,19,99.1,90,1539871848790
37,0,0,0,12,99.06,10,1539871848791
37,0,0,0,4,99.0201,50,1539871851675
14,37,41,0,3,99.02,50,1539871851783
14,37,41,0,3,99.02,50,1539871853232
14,41,0,0,12,99.07,100,1539871856588
0,0,0,0,1,99.08,100,1539871860982
0,0,0,0,19,99.08,100,1539871860982
14,37,41,0,10,99.09,73,1539871860982
0,0,0,0,12,99.08,100,1539871860982
14,37,41,0,10,99.09,50,1539871860982
0,0,0,0,10,99.07,100,1539871860982
0,0,0,0,10,99.07,100,1539871860983
0,0,0,0,10,99.09,100,1539871860983
14,41,0,0,12,99.09,100,1539871860983
14,37,41,0,10,99.09,77,1539871860983
14,41,0,0,12,99.09,100,1539871860983
0,0,0,0,4,99.08,100,1539871860984
0,0,0,0,4,99.08,100,1539871860984
0,0,0,0,4,99.08,100,1539871860984
14,37,41,0,19,99.11,10,1539871860988
0,0,0,0,10,99.11,400,1539871860988
14,41,0,0,12,99.11,100,1539871860988
14,37,41,0,12,99.11,3,1539871860988
37,0,0,0,12,99.11,97,1539871860988
37,0,0,0,19,99.13,75,1539871860989
0,0,0,0,19,99.13,235,1539871860989
0,0,0,0,19,99.13,190,1539871860989
0,0,0,0,4,99.1,100,1539871860999
0,0,0,0,4,99.11,100,1539871860999
0,0,0,0,12,99.15,100,1539871861000
0,0,0,0,12,99.2,100,1539871861000
37,0,0,0,4,99.1,52,1539871861127
37,0,0,0,8,99.13,89,1539871861422
0,0,0,0,4,99.1,100,1539871862001
0,0,0,0,4,99.1,100,1539871862002
14,41,0,0,11,99.1,100,1539871865511
14,41,0,0,10,99.1,100,1539871865511
14,41,0,0,12,99.1,100,1539871865511
0,0,0,0,4,99.1,100,1539871865525
0,0,0,0,15,99.095,100,1539871885228
0,0,0,0,11,99.09,100,1539871885620
0,0,0,0,15,99.16,100,1539871885628
0,0,0,0,4,99.16,200,1539871885879
0,0,0,0,12,99.1,100,1539871888716
0,0,0,0,4,99.16,200,1539871888863
0,0,0,0,12,99.095,100,1539871890708
37,0,0,0,4,99.0797,35,1539871898428
0,0,0,0,10,99.14,100,1539871903475
14,37,41,0,11,99.15,50,1539871903475
14,37,41,0,11,99.15,50,1539871903475
14,41,0,0,10,99.15,100,1539871903475
14,41,0,0,12,99.14,100,1539871903475
14,37,41,0,12,99.16,50,1539871903475
14,37,41,0,12,99.16,20,1539871903475
14,37,41,0,12,99.16,30,1539871903476
14,37,41,0,10,99.17,37,1539871903476
14,37,41,0,10,99.17,33,1539871903476
14,41,0,0,10,99.17,130,1539871903476
0,0,0,0,12,99.19,100,1539871903480
0,0,0,0,12,99.19,100,1539871903480
0,0,0,0,12,99.21,100,1539871903481
0,0,0,0,19,99.21,100,1539871903481
0,0,0,0,4,99.22,100,1539871903484
0,0,0,0,12,99.23,100,1539871903494
0,0,0,0,10,99.23,100,1539871903494
0,0,0,0,2,99.25,100,1539871903857
14,41,0,0,8,99.25,100,1539871904166
0,0,0,0,10,99.28,100,1539871905067
0,0,0,0,12,99.28,100,1539871905067
0,0,0,0,4,99.27,100,1539871905068
0,0,0,0,12,99.28,100,1539871905430
0,0,0,0,12,99.28,100,1539871905430
0,0,0,0,4,99.2602,200,1539871905958
37,0,0,0,11,99.28,8,1539871910488
14,41,0,0,11,99.26,100,1539871911004
14,37,41,0,11,99.26,33,1539871911005
37,0,0,0,11,99.26,8,1539871911005
14,37,41,0,11,99.26,59,1539871911006
0,0,0,0,12,99.26,100,1539871911006
37,0,0,0,10,99.24,5,1539871911011
37,0,0,0,10,99.24,17,1539871911012
37,0,0,0,10,99.24,26,1539871911012
37,0,0,0,10,99.24,23,1539871911013
37,0,0,0,10,99.24,29,1539871911013
14,41,0,0,8,99.24,100,1539871911013
14,41,0,0,12,99.24,100,1539871911013
14,41,0,0,8,99.24,100,1539871911013
0,0,0,0,8,99.24,100,1539871911014
0,0,0,0,8,99.24,100,1539871911015
37,0,0,0,12,99.28,10,1539871911031
37,0,0,0,18,99.28,10,1539871911031
37,0,0,0,12,99.29,69,1539871911031
37,0,0,0,8,99.28,10,1539871911031
37,0,0,0,19,99.28,10,1539871911031
37,0,0,0,12,99.3,6,1539871911031
37,0,0,0,7,99.28,10,1539871911031
37,0,0,0,10,99.3,77,1539871911038
0,0,0,0,11,99.3,200,1539871911038
37,0,0,0,10,99.3,23,1539871911038
37,0,0,0,12,99.3,94,1539871911038
0,0,0,0,12,99.3,100,1539871911038
14,37,41,0,2,99.28,10,1539871911038
14,37,41,0,17,99.28,15,1539871911038
0,0,0,0,4,99.27,100,1539871911058
0,0,0,0,4,99.265,100,1539871911064
37,0,0,0,4,99.28,15,1539871911068
0,0,0,0,4,99.2936,100,1539871921729
0,0,0,0,4,99.31,100,1539871922435
37,0,0,0,10,99.29,3,1539871922465
14,37,41,0,10,99.29,97,1539871922465
0,0,0,0,11,99.28,100,1539871922465
37,0,0,0,10,99.26,30,1539871922708
37,0,0,0,4,99.25,17,1539871923297
37,0,0,0,4,99.2837,53,1539871929457
0,0,0,0,10,99.28,100,1539871934146
0,0,0,0,4,99.33,100,1539871946970
0,0,0,0,19,99.32,100,1539871948941
0,0,0,0,19,99.32,100,1539871948941
14,41,0,0,2,99.32,100,1539871948941
0,0,0,0,2,99.32,100,1539871948941
14,41,0,0,19,99.32,100,1539871948944
37,0,0,0,4,99.33,92,1539871949739
14,41,0,0,10,99.33,100,1539871949903
14,37,41,0,8,99.33,2,1539871949903
14,37,41,0,12,99.33,14,1539871949903
14,37,41,0,11,99.34,57,1539871949903
14,41,0,0,12,99.33,100,1539871949903
14,37,41,0,10,99.35,41,1539871949903
14,37,41,0,10,99.35,59,1539871949903
0,0,0,0,12,99.33,100,1539871949903
37,0,0,0,12,99.33,90,1539871949904
14,37,41,0,12,99.32,10,1539871949904
0,0,0,0,8,99.33,100,1539871949904
0,0,0,0,8,99.33,100,1539871949904
14,37,41,0,17,99.35,38,1539871949904
14,37,41,0,17,99.35,40,1539871949904
14,37,41,0,17,99.35,22,1539871949904
0,0,0,0,4,99.33,100,1539871949904
0,0,0,0,10,99.36,100,1539871953274
14,37,41,0,12,99.37,29,1539871953275
0,0,0,0,10,99.36,100,1539871956551
37,0,0,0,10,99.36,62,1539871958709
37,0,0,0,10,99.36,14,1539871958709
37,0,0,0,10,99.36,24,1539871958709
0,0,0,0,18,99.3,100,1539871964643
0,0,0,0,2,99.3,100,1539871964643
14,37,41,0,19,99.3,40,1539871964643
14,37,41,0,19,99.3,50,1539871964643
14,37,41,0,19,99.3,10,1539871964643
14,41,0,0,8,99.3,100,1539871964643
0,0,0,0,10,99.29,100,1539871964672
0,0,0,0,4,99.2763,3500,1539871974516
0,0,0,0,12,99.32,100,1539871975832
14,37,41,0,10,99.32,99,1539871975832
14,37,41,0,10,99.32,1,1539871975832
14,41,0,0,12,99.32,100,1539871975832
14,37,41,0,10,99.33,10,1539871975832
0,0,0,0,12,99.32,100,1539871975832
14,37,41,0,12,99.32,10,1539871975833
14,37,41,0,12,99.32,50,1539871975833
0,0,0,0,10,99.33,132,1539871975834
37,0,0,0,4,99.32,22,1539871975834
14,37,41,0,2,99.32,10,1539871975834
14,37,41,0,12,99.32,40,1539871975834
14,37,41,0,12,99.33,60,1539871975834
14,41,0,0,12,99.33,101,1539871975835
0,0,0,0,4,99.3,200,1539871975836
0,0,0,0,4,99.345,100,1539871976882
0,0,0,0,4,99.33,100,1539871977885
37,0,0,0,12,99.33,10,1539871979163
0,0,0,0,10,99.33,100,1539871979163
14,41,0,0,11,99.33,100,1539871980516
0,0,0,0,19,99.32,100,1539871980516
0,0,0,0,11,99.31,100,1539871980520
0,0,0,0,11,99.31,100,1539871980520
14,41,0,0,10,99.3,100,1539871980521
0,0,0,0,8,99.3,100,1539871980896
14,41,0,0,11,99.29,100,1539871984792
14,37,41,0,11,99.28,11,1539871984792
37,0,0,0,10,99.28,30,1539871984793
14,37,41,0,11,99.28,89,1539871984793
14,37,41,0,12,99.28,70,1539871984794
0,0,0,0,19,99.26,100,1539871984794
14,37,41,0,10,99.28,70,1539871984796
0,0,0,0,11,99.32,100,1539871987196
0,0,0,0,4,99.32,100,1539871987196
37,0,0,0,2,99.26,10,1539871988288
0,0,0,0,11,99.25,100,1539871992224
0,0,0,0,11,99.25,100,1539871992224
0,0,0,0,10,99.25,100,1539871992224
0,0,0,0,12,99.25,100,1539871992224
14,37,41,0,12,99.24,37,1539871992225
37,0,0,0,12,99.24,63,1539871992225
0,0,0,0,8,99.22,100,1539871992230
0,0,0,0,19,99.18,100,1539871992236
0,0,0,0,4,99.22,100,1539871992250
0,0,0,0,19,99.22,100,1539871992257
14,41,0,0,10,99.22,100,1539871992702
0,0,0,0,12,99.23,100,1539871992709
0,0,0,0,15,99.34,100,1539872000538
37,0,0,0,4,99.1781,7,1539872001166
0,0,0,0,4,99.28,100,1539872004757
37,0,0,0,4,99.25,50,1539872006739
0,0,0,0,11,99.25,100,1539872008497
14,37,41,0,12,99.25,17,1539872008497
14,37,41,0,3,99.17,63,1539872016245
0,0,0,0,10,99.17,100,1539872016245
14,41,0,0,3,99.17,180,1539872016245
14,37,41,0,3,99.17,57,1539872016412
14,37,41,0,12,99.16,63,1539872016412
37,0,0,0,19,99.16,20,1539872016412
37,0,0,0,12,99.16,37,1539872016412
37,0,0,0,4,99.1899,1,1539872020943
0,0,0,0,4,99.11,100,1539872023504
0,0,0,0,2,99.12,154,1539872029116
37,0,0,0,4,99.1535,50,1539872030310
14,41,0,0,3,99.19,100,1539872031058
0,0,0,0,4,99.1704,3500,1539872035036
0,0,0,0,8,99.19,100,1539872035045
0,0,0,0,12,99.19,200,1539872035045
14,37,41,0,10,99.2,13,1539872035045
14,41,0,0,10,99.2,187,1539872035045
37,0,0,0,1,99.2,79,1539872035046
0,0,0,0,8,99.19,100,1539872035047
37,0,0,0,4,99.19,50,1539872035047
0,0,0,0,10,99.19,100,1539872035833
0,0,0,0,4,99.205,100,1539872038664
14,37,41,0,10,99.19,93,1539872038995
37,0,0,0,10,99.19,7,1539872038995
0,0,0,0,11,99.22,100,1539872039035
0,0,0,0,12,99.22,100,1539872039035
14,41,0,0,2,99.21,100,1539872039035
14,37,41,0,12,99.17,51,1539872040422
0,0,0,0,4,99.17,100,1539872054252
14,41,0,0,10,99.22,100,1539872063481
0,0,0,0,10,99.22,100,1539872064658
0,0,0,0,19,99.22,100,1539872064672
14,37,41,0,8,99.22,82,1539872065502
14,37,41,0,8,99.22,18,1539872065502
14,37,41,0,10,99.22,11,1539872065502
14,37,41,0,12,99.22,15,1539872065502
14,41,0,0,12,99.22,100,1539872065502
37,0,0,0,12,99.22,56,1539872065503
0,0,0,0,4,99.195,100,1539872065676
0,0,0,0,4,99.22,100,1539872065785
14,41,0,0,18,99.22,100,1539872068110
14,37,41,0,12,99.22,44,1539872068110
0,0,0,0,11,99.22,100,1539872068335
0,0,0,0,4,99.23,100,1539872069794
37,0,0,0,4,99.24,40,1539872069794
14,37,41,0,11,99.23,33,1539872078842
14,37,41,0,11,99.23,67,1539872078842
0,0,0,0,4,99.23,100,1539872078850
37,0,0,0,4,99.17,58,1539872084624
14,41,0,0,11,99.23,100,1539872091383
0,0,0,0,12,99.23,100,1539872091383
14,41,0,0,10,99.23,100,1539872091383
14,41,0,0,8,99.23,100,1539872091383
14,41,0,0,19,99.23,100,1539872091383
14,41,0,0,11,99.24,100,1539872091383
14,41,0,0,10,99.24,100,1539872091383
0,0,0,0,11,99.24,100,1539872091383
14,37,41,0,12,99.24,70,1539872091383
14,37,41,0,12,99.24,30,1539872091383
0,0,0,0,10,99.26,100,1539872091392
0,0,0,0,10,99.26,100,1539872091393
0,0,0,0,10,99.26,100,1539872091393
37,0,0,0,4,99.2483,20,1539872094327
14,41,0,0,10,99.28,100,1539872097176
37,0,0,0,4,99.2258,20,1539872102770
0,0,0,0,10,99.28,100,1539872103056
0,0,0,0,12,99.28,100,1539872103056
0,0,0,0,8,99.34,100,1539872103155
0,0,0,0,12,99.34,100,1539872103155
37,0,0,0,19,99.34,25,1539872103155
14,37,41,0,19,99.34,75,1539872103283
37,0,0,0,11,99.35,82,1539872103283
0,0,0,0,10,99.34,100,1539872104087
37,0,0,0,12,99.34,25,1539872104087
0,0,0,0,12,99.34,175,1539872104087
37,0,0,0,12,99.34,25,1539872104183
0,0,0,0,12,99.34,100,1539872104183
37,0,0,0,12,99.34,75,1539872104183
14,37,41,0,12,99.34,25,1539872104183
0,0,0,0,4,99.345,100,1539872105808
0,0,0,0,11,99.32,100,1539872106113
37,0,0,0,10,99.36,20,1539872110486
0,0,0,0,4,99.3569,135,1539872112641
14,41,0,0,10,99.35,100,1539872114014
0,0,0,0,11,99.32,100,1539872114015
0,0,0,0,2,99.32,100,1539872114015
14,41,0,0,10,99.32,100,1539872114015
14,37,41,0,10,99.33,50,1539872114015
37,0,0,0,10,99.33,13,1539872114015
37,0,0,0,10,99.33,37,1539872114015
14,41,0,0,12,99.32,100,1539872114016
14,41,0,0,19,99.29,100,1539872122029
14,41,0,0,8,99.31,100,1539872122029
0,0,0,0,10,99.31,100,1539872124843
37,0,0,0,4,99.31,50,1539872126794
0,0,0,0,4,99.31,100,1539872126794
0,0,0,0,10,99.31,100,1539872126816
14,41,0,0,2,99.3,100,1539872126816
14,41,0,0,2,99.3,200,1539872126816
14,41,0,0,12,99.31,100,1539872126816
14,41,0,0,17,99.31,100,1539872126816
37,0,0,0,4,99.24,50,1539872130748
14,37,41,0,11,99.31,50,1539872140942
37,0,0,0,11,99.31,50,1539872140942
0,0,0,0,10,99.33,100,1539872140942
37,0,0,0,17,99.27,33,1539872140982
37,0,0,0,4,99.2654,15,1539872159768
14,41,0,0,10,99.31,100,1539872161602
14,37,41,0,18,99.31,70,1539872164674
14,37,41,0,18,99.31,18,1539872164674
14,41,0,0,10,99.31,100,1539872164674
14,37,41,0,11,99.32,7,1539872164674
14,41,0,0,12,99.31,100,1539872164674
14,37,41,0,11,99.32,81,1539872164674
14,37,41,0,12,99.31,16,1539872164674
37,0,0,0,18,99.28,10,1539872164676
37,0,0,0,19,99.28,10,1539872164676
37,0,0,0,8,99.27,10,1539872164676
37,0,0,0,7,99.27,10,1539872164676
37,0,0,0,12,99.27,60,1539872164676
14,41,0,0,10,99.31,100,1539872167600
0,0,0,0,4,99.285,100,1539872175108
0,0,0,0,4,99.31,100,1539872185845
37,0,0,0,4,99.32,20,1539872185845
0,0,0,0,4,99.285,100,1539872187940
10,2,41,0,4,99.2902,200,1539872188475
0,0,0,0,10,99.32,100,1539872189886
14,41,0,0,8,99.32,100,1539872189886
14,37,41,0,10,99.33,19,1539872189886
14,41,0,0,12,99.32,100,1539872189886
0,0,0,0,10,99.33,100,1539872189890
14,41,0,0,12,99.33,100,1539872189890
0,0,0,0,19,99.3,100,1539872189891
0,0,0,0,10,99.33,100,1539872189891
0,0,0,0,12,99.33,100,1539872190350
0,0,0,0,10,99.34,100,1539872190401
0,0,0,0,11,99.37,100,1539872193674
0,0,0,0,10,99.34,100,1539872193674
0,0,0,0,19,99.37,100,1539872193674
37,0,0,0,12,99.37,71,1539872193674
14,41,0,0,12,99.38,100,1539872196012
0,0,0,0,4,99.35,100,1539872216226
0,0,0,0,10,99.35,100,1539872223130
0,0,0,0,10,99.31,100,1539872227441
0,0,0,0,8,99.31,300,1539872227441
0,0,0,0,8,99.31,100,1539872227441
14,41,0,0,12,99.31,100,1539872227441
0,0,0,0,19,99.31,100,1539872227441
14,41,0,0,12,99.31,100,1539872227441
0,0,0,0,15,99.31,100,1539872227442
14,37,41,0,10,99.26,36,1539872227443
14,41,0,0,12,99.26,100,1539872227443
0,0,0,0,8,99.27,100,1539872227443
14,41,0,0,10,99.25,300,1539872227443
14,41,0,0,12,99.25,100,1539872227444
0,0,0,0,4,99.27,100,1539872227445
14,41,0,0,12,99.24,100,1539872227447
0,0,0,0,12,99.23,100,1539872227447
14,41,0,0,8,99.22,100,1539872227448
14,37,41,0,19,99.22,20,1539872227448
14,41,0,0,10,99.2,111,1539872227452
14,41,0,0,12,99.2,100,1539872227452
0,0,0,0,4,99.25,100,1539872227455
0,0,0,0,10,99.25,100,1539872227473
14,41,0,0,2,99.25,100,1539872230720
37,0,0,0,11,99.17,50,1539872235512
37,0,0,0,11,99.17,50,1539872235512
0,0,0,0,8,99.17,100,1539872235512
37,0,0,0,12,99.16,10,1539872236051
37,0,0,0,12,99.16,90,1539872236051
0,0,0,0,8,99.16,100,1539872236051
14,41,0,0,11,99.16,100,1539872236051
37,0,0,0,12,99.16,10,1539872236051
14,41,0,0,12,99.15,100,1539872236052
0,0,0,0,4,99.11,100,1539872237750
0,0,0,0,2,99.06,100,1539872242717
0,0,0,0,10,99.05,200,1539872247900
37,0,0,0,12,99.05,27,1539872247900
0,0,0,0,12,99.05,100,1539872247900
14,41,0,0,10,99.05,100,1539872247900
37,0,0,0,12,99.05,73,1539872247900
14,37,41,0,12,99.05,27,1539872247900
14,41,0,0,12,99.05,100,1539872247900
14,41,0,0,8,99.05,100,1539872247900
0,0,0,0,19,99.09,100,1539872247907
0,0,0,0,4,99.08,139,1539872249003
0,0,0,0,10,99.08,300,1539872249023
0,0,0,0,4,98.995,100,1539872249673
10,2,41,0,4,99.2238,100,1539872255990
10,2,41,0,4,99.2238,100,1539872255990
0,0,0,0,11,99.04,100,1539872255990
0,0,0,0,10,99.04,169,1539872255991
0,0,0,0,19,99.04,100,1539872255991
10,2,41,0,4,99.2238,100,1539872255991
14,41,0,0,7,99.04,100,1539872255991
0,0,0,0,8,99.04,100,1539872255991
14,41,0,0,2,99.04,100,1539872255991
14,41,0,0,12,99.04,100,1539872255991
0,0,0,0,8,99.04,100,1539872255991
14,41,0,0,8,99.04,100,1539872255991
0,0,0,0,12,99.04,100,1539872255991
0,0,0,0,12,99.05,100,1539872255991
14,41,0,0,12,99.05,100,1539872255991
37,0,0,0,4,99.04,50,1539872255993
37,0,0,0,12,99.07,15,1539872256001
0,0,0,0,19,99.08,100,1539872256001
0,0,0,0,10,99.1,100,1539872256108
37,0,0,0,10,99.1,29,1539872259307
37,0,0,0,10,99.1,24,1539872259307
14,37,41,0,10,99.1,47,1539872259307
37,0,0,0,10,99.09,93,1539872259308
37,0,0,0,10,99.09,7,1539872259308
0,0,0,0,4,99.11,200,1539872259309
0,0,0,0,4,99.13,100,1539872260856
14,41,0,0,2,99.13,100,1539872264069
0,0,0,0,10,99.11,100,1539872268094
0,0,0,0,10,99.13,100,1539872275094
0,0,0,0,12,99.13,100,1539872275095
0,0,0,0,12,99.12,100,1539872276096
14,41,0,0,12,99.13,100,1539872277798
14,41,0,0,10,99.13,100,1539872277798
14,41,0,0,7,99.13,100,1539872277798
0,0,0,0,10,99.16,100,1539872279790
0,0,0,0,11,99.16,100,1539872279802
